# OpenSignals Text File Format. Version 1
# {"0C:43:14:1C:2A:02": {"position": 0, "device": "bitalino_rev", "device name": "0C:43:14:1C:2A:02", "device connection": "BTH0C:43:14:1C:2A:02", "sampling rate": 1000, "resolution": [4, 1, 1, 1, 1, 10, 10, 10, 10, 6, 6], "firmware version": 1282, "comments": "", "keywords": "", "mode": 0, "sync interval": 2, "date": "2026-4-17", "time": "12:49:46.993", "channels": [1, 2, 3, 4, 5, 6], "sensor": ["RAW", "RAW", "RAW", "RAW", "RAW", "RAW"], "label": ["A1", "A2", "A3", "A4", "A5", "A6"], "column": ["nSeq", "I1", "I2", "O1", "O2", "A1", "A2", "A3", "A4", "A5", "A6"], "special": [{}, {}, {}, {}, {}, {}], "digital IO": [0, 0, 1, 1]}}
# EndOfHeader
0	0	0	0	0	532	511	0	707	40	17	
1	0	0	0	0	522	511	0	800	40	17	
2	0	0	0	0	521	512	0	911	40	17	
3	0	0	0	0	519	513	0	1002	40	17	
4	0	0	0	0	513	513	2	1018	40	17	
5	0	0	0	0	505	513	1	1018	40	17	
6	0	0	0	0	499	515	1	1018	40	17	
7	0	0	0	0	491	514	2	1018	40	17	
8	0	0	0	0	483	513	1	1018	40	17	
9	0	0	0	0	478	513	1	1018	40	17	
10	0	0	0	0	484	513	3	998	40	17	
11	0	0	0	0	506	514	1	986	40	17	
12	0	0	0	0	527	515	3	1019	40	17	
13	0	0	0	0	538	515	1	1018	40	17	
14	0	0	0	0	541	515	2	1018	40	17	
15	0	0	0	0	545	514	3	1018	40	17	
0	0	0	0	0	535	513	4	1019	40	17	
1	0	0	0	0	526	510	1	1018	40	17	
2	0	0	0	0	510	509	3	1018	40	17	
3	0	0	0	0	514	510	2	1018	40	17	
4	0	0	0	0	513	510	1	1019	40	17	
5	0	0	0	0	508	509	0	1018	40	17	
6	0	0	0	0	502	510	3	1018	40	17	
7	0	0	0	0	492	511	2	1018	40	17	
8	0	0	0	0	485	509	1	1018	40	17	
9	0	0	0	0	480	509	3	1018	40	17	
10	0	0	0	0	476	512	3	1018	40	17	
11	0	0	0	0	493	513	3	1018	40	17	
12	0	0	0	0	516	512	3	902	40	17	
13	0	0	0	0	531	511	3	914	40	17	
14	0	0	0	0	542	511	1	977	40	17	
15	0	0	0	0	542	510	1	1017	40	17	
0	0	0	0	0	540	510	3	1019	40	17	
1	0	0	0	0	530	509	1	1018	40	17	
2	0	0	0	0	520	509	1	1018	40	17	
3	0	0	0	0	513	512	1	1017	40	17	
4	0	0	0	0	516	510	3	1018	40	17	
5	0	0	0	0	515	509	3	917	40	17	
6	0	0	0	0	510	510	3	838	40	17	
7	0	0	0	0	504	510	2	728	40	17	
8	0	0	0	0	492	511	4	623	40	17	
9	0	0	0	0	486	511	3	559	40	17	
10	0	0	0	0	479	511	3	527	40	17	
11	0	0	0	0	484	511	1	493	40	17	
12	0	0	0	0	500	512	2	502	40	17	
13	0	0	0	0	520	511	1	624	40	17	
14	0	0	0	0	534	511	1	751	40	17	
15	0	0	0	0	538	510	0	850	40	17	
0	0	0	0	0	542	509	3	910	40	17	
1	0	0	0	0	536	509	0	1018	40	17	
2	0	0	0	0	529	508	1	1018	40	17	
3	0	0	0	0	516	509	0	1017	40	17	
4	0	0	0	0	511	509	1	1019	40	17	
5	0	0	0	0	513	511	3	1018	40	17	
6	0	0	0	0	511	511	2	1018	40	17	
7	0	0	0	0	506	513	3	1018	40	17	
8	0	0	0	0	497	511	3	1019	40	17	
9	0	0	0	0	489	511	3	1018	40	17	
10	0	0	0	0	483	511	1	1018	40	17	
11	0	0	0	0	480	513	0	1017	40	17	
12	0	0	0	0	487	512	2	905	40	17	
13	0	0	0	0	508	511	1	914	40	17	
14	0	0	0	0	526	512	3	1018	40	17	
15	0	0	0	0	538	512	2	1018	40	17	
0	0	0	0	0	540	510	2	1018	40	17	
1	0	0	0	0	542	511	3	1018	40	17	
2	0	0	0	0	531	510	3	1018	40	17	
3	0	0	0	0	522	511	2	1018	40	17	
4	0	0	0	0	512	510	3	1018	40	17	
5	0	0	0	0	511	508	2	1018	40	17	
6	0	0	0	0	513	506	1	1018	40	17	
7	0	0	0	0	511	508	1	1017	40	17	
8	0	0	0	0	505	507	3	927	40	17	
9	0	0	0	0	493	509	1	862	40	17	
10	0	0	0	0	486	511	0	788	40	17	
11	0	0	0	0	483	511	0	684	40	17	
12	0	0	0	0	482	509	3	604	40	17	
13	0	0	0	0	494	507	1	615	40	17	
14	0	0	0	0	514	508	3	680	40	17	
15	0	0	0	0	531	511	2	793	40	17	
0	0	0	0	0	544	510	4	888	40	17	
1	0	0	0	0	547	508	3	1008	40	17	
2	0	0	0	0	539	508	3	1018	40	17	
3	0	0	0	0	531	509	3	1018	40	17	
4	0	0	0	0	521	509	3	1018	40	17	
5	0	0	0	0	513	509	3	1018	40	17	
6	0	0	0	0	515	509	3	960	40	17	
7	0	0	0	0	518	508	2	911	40	17	
8	0	0	0	0	510	508	2	876	40	17	
9	0	0	0	0	500	506	1	847	40	17	
10	0	0	0	0	492	507	1	787	40	17	
11	0	0	0	0	485	509	0	692	40	17	
12	0	0	0	0	480	509	3	628	40	17	
13	0	0	0	0	482	508	0	609	40	17	
14	0	0	0	0	501	510	0	652	40	17	
15	0	0	0	0	521	512	1	726	40	17	
0	0	0	0	0	533	513	3	859	40	17	
1	0	0	0	0	538	513	1	961	40	17	
2	0	0	0	0	541	513	3	993	40	17	
3	0	0	0	0	535	513	2	928	40	17	
4	0	0	0	0	530	513	4	851	40	17	
5	0	0	0	0	519	511	3	833	40	17	
6	0	0	0	0	514	509	2	762	40	17	
7	0	0	0	0	516	509	2	652	40	17	
8	0	0	0	0	513	508	3	531	40	17	
9	0	0	0	0	505	508	3	414	40	17	
10	0	0	0	0	497	506	3	322	40	17	
11	0	0	0	0	487	506	1	259	40	17	
12	0	0	0	0	482	507	2	195	40	17	
13	0	0	0	0	480	506	1	155	40	17	
14	0	0	0	0	489	508	1	128	40	17	
15	0	0	0	0	511	508	0	149	40	17	
0	0	0	0	0	529	508	3	233	40	17	
1	0	0	0	0	540	505	0	409	40	17	
2	0	0	0	0	543	508	1	622	40	17	
3	0	0	0	0	543	508	3	745	40	17	
4	0	0	0	0	532	508	1	849	40	17	
5	0	0	0	0	521	508	3	908	40	17	
6	0	0	0	0	512	510	3	899	40	17	
7	0	0	0	0	513	512	2	850	40	17	
8	0	0	0	0	516	510	3	813	40	17	
9	0	0	0	0	510	509	3	823	40	17	
10	0	0	0	0	505	509	2	826	40	17	
11	0	0	0	0	495	508	2	774	40	17	
12	0	0	0	0	486	508	1	699	40	17	
13	0	0	0	0	482	508	3	634	40	17	
14	0	0	0	0	481	510	3	587	40	17	
15	0	0	0	0	494	509	2	557	40	17	
0	0	0	0	0	515	510	2	635	40	17	
1	0	0	0	0	531	511	2	786	40	17	
2	0	0	0	0	540	511	3	936	40	17	
3	0	0	0	0	545	510	3	1017	40	17	
4	0	0	0	0	541	510	4	1019	40	17	
5	0	0	0	0	530	507	2	1018	40	17	
6	0	0	0	0	519	508	2	1018	40	17	
7	0	0	0	0	512	509	2	1017	40	17	
8	0	0	0	0	516	509	4	899	40	17	
9	0	0	0	0	514	507	2	835	40	17	
10	0	0	0	0	505	508	2	795	40	17	
11	0	0	0	0	502	510	2	712	40	17	
12	0	0	0	0	492	509	2	612	40	17	
13	0	0	0	0	486	509	3	503	40	17	
14	0	0	0	0	484	509	2	412	40	17	
15	0	0	0	0	480	508	2	330	40	17	
0	0	0	0	0	499	509	1	305	40	17	
1	0	0	0	0	519	508	2	339	40	17	
2	0	0	0	0	534	508	3	457	40	17	
3	0	0	0	0	541	508	2	578	40	17	
4	0	0	0	0	541	508	3	668	40	17	
5	0	0	0	0	533	510	2	730	40	17	
6	0	0	0	0	527	510	3	739	40	17	
7	0	0	0	0	515	511	2	693	40	17	
8	0	0	0	0	515	511	3	644	40	17	
9	0	0	0	0	512	511	2	618	40	17	
10	0	0	0	0	515	511	2	629	40	17	
11	0	0	0	0	507	512	3	592	40	17	
12	0	0	0	0	497	512	4	505	40	17	
13	0	0	0	0	489	512	3	401	40	17	
14	0	0	0	0	483	512	3	299	40	17	
15	0	0	0	0	483	511	1	199	40	17	
0	0	0	0	0	488	510	1	100	40	17	
1	0	0	0	0	506	512	2	66	40	17	
2	0	0	0	0	527	512	1	175	40	17	
3	0	0	0	0	540	510	1	326	40	17	
4	0	0	0	0	541	510	3	524	40	17	
5	0	0	0	0	540	510	1	679	40	17	
6	0	0	0	0	539	510	1	738	40	17	
7	0	0	0	0	527	510	0	694	40	17	
8	0	0	0	0	519	511	3	603	40	17	
9	0	0	0	0	515	509	1	536	40	17	
10	0	0	0	0	517	507	0	467	40	17	
11	0	0	0	0	512	508	0	412	40	17	
12	0	0	0	0	503	508	3	375	40	17	
13	0	0	0	0	494	510	1	306	40	17	
14	0	0	0	0	485	510	1	185	40	17	
15	0	0	0	0	479	511	0	65	40	17	
0	0	0	0	0	478	510	2	6	40	17	
1	0	0	0	0	492	510	1	65	40	17	
2	0	0	0	0	513	512	1	236	40	17	
3	0	0	0	0	529	514	0	451	40	17	
4	0	0	0	0	541	514	2	627	40	17	
5	0	0	0	0	540	512	3	833	40	17	
6	0	0	0	0	539	512	1	1009	40	17	
7	0	0	0	0	528	512	1	1017	40	17	
8	0	0	0	0	519	510	2	951	40	17	
9	0	0	0	0	514	509	1	855	40	17	
10	0	0	0	0	518	509	1	771	40	17	
11	0	0	0	0	520	510	0	699	40	17	
12	0	0	0	0	512	508	3	616	40	17	
13	0	0	0	0	505	510	0	510	40	17	
14	0	0	0	0	493	508	0	388	40	17	
15	0	0	0	0	484	508	0	262	40	17	
0	0	0	0	0	484	507	3	156	40	17	
1	0	0	0	0	480	507	1	109	40	17	
2	0	0	0	0	498	508	0	140	40	17	
3	0	0	0	0	518	508	0	206	40	17	
4	0	0	0	0	532	509	3	356	40	17	
5	0	0	0	0	538	508	1	604	40	17	
6	0	0	0	0	540	508	1	833	40	17	
7	0	0	0	0	534	508	1	916	40	17	
8	0	0	0	0	526	507	2	903	40	17	
9	0	0	0	0	516	508	3	835	40	17	
10	0	0	0	0	512	510	2	710	40	17	
11	0	0	0	0	515	510	2	600	40	17	
12	0	0	0	0	512	509	3	537	40	17	
13	0	0	0	0	504	508	3	488	40	17	
14	0	0	0	0	497	510	2	422	40	17	
15	0	0	0	0	490	509	1	340	40	17	
0	0	0	0	0	484	508	2	246	40	17	
1	0	0	0	0	480	508	1	159	40	17	
2	0	0	0	0	488	508	1	105	40	17	
3	0	0	0	0	511	509	1	106	40	17	
4	0	0	0	0	531	510	2	207	40	17	
5	0	0	0	0	540	511	0	389	40	17	
6	0	0	0	0	543	512	0	554	40	17	
7	0	0	0	0	542	513	0	633	40	17	
8	0	0	0	0	532	511	4	662	40	17	
9	0	0	0	0	525	512	1	705	40	17	
10	0	0	0	0	512	511	3	643	40	17	
11	0	0	0	0	512	511	2	526	40	17	
12	0	0	0	0	513	511	3	432	40	17	
13	0	0	0	0	507	510	3	440	40	17	
14	0	0	0	0	499	512	2	391	40	17	
15	0	0	0	0	494	513	2	298	40	17	
0	0	0	0	0	484	512	3	184	40	17	
1	0	0	0	0	487	511	3	110	40	17	
2	0	0	0	0	481	510	3	31	40	17	
3	0	0	0	0	497	510	1	0	40	17	
4	0	0	0	0	519	511	3	0	40	17	
5	0	0	0	0	531	509	1	72	40	17	
6	0	0	0	0	540	512	1	193	40	17	
7	0	0	0	0	544	512	0	284	40	17	
8	0	0	0	0	541	510	2	345	40	17	
9	0	0	0	0	531	510	0	347	40	17	
10	0	0	0	0	519	510	1	271	40	17	
11	0	0	0	0	512	511	1	164	40	17	
12	0	0	0	0	514	512	4	95	40	17	
13	0	0	0	0	510	510	1	150	40	17	
14	0	0	0	0	505	511	2	188	40	17	
15	0	0	0	0	498	511	2	156	40	17	
0	0	0	0	0	493	511	3	120	40	17	
1	0	0	0	0	486	510	3	166	40	17	
2	0	0	0	0	479	511	3	243	40	17	
3	0	0	0	0	481	511	2	229	40	17	
4	0	0	0	0	499	511	2	199	40	17	
5	0	0	0	0	521	512	2	259	40	17	
6	0	0	0	0	537	512	2	434	40	17	
7	0	0	0	0	543	511	1	648	40	17	
8	0	0	0	0	545	512	2	796	40	17	
9	0	0	0	0	537	508	1	909	40	17	
10	0	0	0	0	527	510	1	928	40	17	
11	0	0	0	0	514	511	0	860	40	17	
12	0	0	0	0	512	511	3	804	40	17	
13	0	0	0	0	514	511	1	817	40	17	
14	0	0	0	0	513	510	0	839	40	17	
15	0	0	0	0	509	509	0	793	40	17	
0	0	0	0	0	500	510	3	718	40	17	
1	0	0	0	0	493	508	0	700	40	17	
2	0	0	0	0	481	510	0	658	40	17	
3	0	0	0	0	481	510	0	569	40	17	
4	0	0	0	0	487	512	3	502	40	17	
5	0	0	0	0	504	513	0	543	40	17	
6	0	0	0	0	524	513	0	697	40	17	
7	0	0	0	0	540	513	0	850	40	17	
8	0	0	0	0	545	511	2	986	40	17	
9	0	0	0	0	542	511	0	1018	40	17	
10	0	0	0	0	534	511	1	1018	40	17	
11	0	0	0	0	523	511	2	1018	40	17	
12	0	0	0	0	511	509	3	1018	40	17	
13	0	0	0	0	513	510	2	856	40	17	
14	0	0	0	0	515	512	2	733	40	17	
15	0	0	0	0	511	511	2	609	40	17	
0	0	0	0	0	501	512	3	483	40	17	
1	0	0	0	0	491	511	2	375	40	17	
2	0	0	0	0	485	511	2	269	40	17	
3	0	0	0	0	481	510	2	155	40	17	
4	0	0	0	0	479	507	3	58	40	17	
5	0	0	0	0	496	508	3	51	40	17	
6	0	0	0	0	516	509	2	100	40	17	
7	0	0	0	0	532	510	0	193	40	17	
8	0	0	0	0	543	509	2	310	40	17	
9	0	0	0	0	544	507	1	511	40	17	
10	0	0	0	0	540	506	0	771	40	17	
11	0	0	0	0	530	508	1	893	40	17	
12	0	0	0	0	521	511	3	901	40	17	
13	0	0	0	0	508	510	1	880	40	17	
14	0	0	0	0	513	510	3	839	40	17	
15	0	0	0	0	516	511	2	746	40	17	
0	0	0	0	0	510	512	3	639	40	17	
1	0	0	0	0	497	511	2	584	40	17	
2	0	0	0	0	492	513	3	510	40	17	
3	0	0	0	0	485	513	3	386	40	17	
4	0	0	0	0	479	512	2	278	40	17	
5	0	0	0	0	480	510	2	224	40	17	
6	0	0	0	0	504	511	1	227	40	17	
7	0	0	0	0	525	511	1	283	40	17	
8	0	0	0	0	534	510	3	429	40	17	
9	0	0	0	0	543	511	1	604	40	17	
10	0	0	0	0	545	512	1	744	40	17	
11	0	0	0	0	540	513	0	737	40	17	
12	0	0	0	0	532	511	3	660	40	17	
13	0	0	0	0	520	511	1	562	40	17	
14	0	0	0	0	517	513	0	455	40	17	
15	0	0	0	0	514	513	0	363	40	17	
0	0	0	0	0	512	514	3	299	40	17	
1	0	0	0	0	504	512	0	303	40	17	
2	0	0	0	0	496	512	2	229	40	17	
3	0	0	0	0	488	513	2	109	40	17	
4	0	0	0	0	483	512	3	0	40	17	
5	0	0	0	0	480	512	2	0	40	17	
6	0	0	0	0	487	510	2	0	40	17	
7	0	0	0	0	507	511	2	0	40	17	
8	0	0	0	0	526	511	3	0	40	17	
9	0	0	0	0	536	511	3	0	40	17	
10	0	0	0	0	541	509	2	167	40	17	
11	0	0	0	0	539	509	2	250	40	17	
12	0	0	0	0	530	509	2	295	40	17	
13	0	0	0	0	524	508	1	315	40	17	
14	0	0	0	0	512	509	1	328	40	17	
15	0	0	0	0	514	510	1	275	40	17	
0	0	0	0	0	515	510	1	245	40	17	
1	0	0	0	0	510	509	1	206	40	17	
2	0	0	0	0	505	510	0	156	40	17	
3	0	0	0	0	494	510	0	118	40	17	
4	0	0	0	0	484	509	2	90	40	17	
5	0	0	0	0	481	509	1	54	40	17	
6	0	0	0	0	483	510	3	59	40	17	
7	0	0	0	0	497	510	2	91	40	17	
8	0	0	0	0	517	511	3	216	40	17	
9	0	0	0	0	530	510	2	355	40	17	
10	0	0	0	0	541	511	3	470	40	17	
11	0	0	0	0	539	509	2	595	40	17	
12	0	0	0	0	538	511	3	682	40	17	
13	0	0	0	0	530	507	2	704	40	17	
14	0	0	0	0	522	508	1	652	40	17	
15	0	0	0	0	514	509	1	561	40	17	
0	0	0	0	0	513	509	3	484	40	17	
1	0	0	0	0	513	509	1	449	40	17	
2	0	0	0	0	506	510	0	457	40	17	
3	0	0	0	0	501	508	0	411	40	17	
4	0	0	0	0	491	506	1	307	40	17	
5	0	0	0	0	482	507	0	214	40	17	
6	0	0	0	0	485	508	1	148	40	17	
7	0	0	0	0	482	510	2	100	40	17	
8	0	0	0	0	502	512	1	109	40	17	
9	0	0	0	0	522	511	2	217	40	17	
10	0	0	0	0	537	510	2	414	40	17	
11	0	0	0	0	540	511	2	578	40	17	
12	0	0	0	0	540	511	3	682	40	17	
13	0	0	0	0	534	509	2	796	40	17	
14	0	0	0	0	526	510	2	839	40	17	
15	0	0	0	0	517	513	1	770	40	17	
0	0	0	0	0	514	513	3	678	40	17	
1	0	0	0	0	514	512	1	627	40	17	
2	0	0	0	0	513	513	0	610	40	17	
3	0	0	0	0	505	513	0	545	40	17	
4	0	0	0	0	499	512	2	459	40	17	
5	0	0	0	0	491	510	1	378	40	17	
6	0	0	0	0	483	509	1	280	40	17	
7	0	0	0	0	481	510	0	189	40	17	
8	0	0	0	0	488	510	2	134	40	17	
9	0	0	0	0	508	511	1	182	40	17	
10	0	0	0	0	527	513	1	376	40	17	
11	0	0	0	0	543	513	0	548	40	17	
12	0	0	0	0	545	514	3	731	40	17	
13	0	0	0	0	543	513	0	832	40	17	
14	0	0	0	0	534	511	1	884	40	17	
15	0	0	0	0	523	511	1	866	40	17	
0	0	0	0	0	510	509	3	794	40	17	
1	0	0	0	0	511	510	2	696	40	17	
2	0	0	0	0	512	509	3	597	40	17	
3	0	0	0	0	506	509	2	481	40	17	
4	0	0	0	0	500	509	3	340	40	17	
5	0	0	0	0	494	509	3	223	40	17	
6	0	0	0	0	485	510	2	87	40	17	
7	0	0	0	0	482	509	2	0	40	17	
8	0	0	0	0	485	510	1	0	40	17	
9	0	0	0	0	498	511	1	0	40	17	
10	0	0	0	0	519	511	1	0	40	17	
11	0	0	0	0	535	511	0	0	40	17	
12	0	0	0	0	544	509	3	0	40	17	
13	0	0	0	0	544	512	1	143	40	17	
14	0	0	0	0	541	512	0	295	40	17	
15	0	0	0	0	534	513	0	326	40	17	
0	0	0	0	0	519	512	2	281	40	17	
1	0	0	0	0	510	511	2	220	40	17	
2	0	0	0	0	513	512	3	151	40	17	
3	0	0	0	0	516	511	2	93	40	17	
4	0	0	0	0	508	509	1	57	40	17	
5	0	0	0	0	496	509	2	44	40	17	
6	0	0	0	0	490	509	2	11	40	17	
7	0	0	0	0	483	509	2	0	40	17	
8	0	0	0	0	480	507	1	0	40	17	
9	0	0	0	0	483	507	2	0	40	17	
10	0	0	0	0	501	508	2	0	40	17	
11	0	0	0	0	522	510	2	0	40	17	
12	0	0	0	0	533	509	3	109	40	17	
13	0	0	0	0	540	511	2	232	40	17	
14	0	0	0	0	540	511	3	312	40	17	
15	0	0	0	0	536	511	2	301	40	17	
0	0	0	0	0	527	510	1	273	40	17	
1	0	0	0	0	516	510	3	247	40	17	
2	0	0	0	0	510	512	2	212	40	17	
3	0	0	0	0	515	512	2	184	40	17	
4	0	0	0	0	513	511	3	230	40	17	
5	0	0	0	0	503	510	3	256	40	17	
6	0	0	0	0	498	510	2	248	40	17	
7	0	0	0	0	488	510	1	231	40	17	
8	0	0	0	0	482	510	1	191	40	17	
9	0	0	0	0	477	510	1	149	40	17	
10	0	0	0	0	488	511	1	120	40	17	
11	0	0	0	0	506	513	0	158	40	17	
12	0	0	0	0	526	513	3	266	40	17	
13	0	0	0	0	540	513	0	459	40	17	
14	0	0	0	0	543	514	0	719	40	17	
15	0	0	0	0	540	512	1	853	40	17	
0	0	0	0	0	534	513	3	933	40	17	
1	0	0	0	0	526	511	1	982	40	17	
2	0	0	0	0	511	511	3	939	40	17	
3	0	0	0	0	516	512	2	824	40	17	
4	0	0	0	0	518	511	4	704	40	17	
5	0	0	0	0	511	510	2	653	40	17	
6	0	0	0	0	504	509	2	647	40	17	
7	0	0	0	0	494	508	2	616	40	17	
8	0	0	0	0	489	509	3	534	40	17	
9	0	0	0	0	484	507	3	430	40	17	
10	0	0	0	0	480	509	3	329	40	17	
11	0	0	0	0	494	510	1	259	40	17	
12	0	0	0	0	512	509	3	246	40	17	
13	0	0	0	0	531	510	1	329	40	17	
14	0	0	0	0	539	511	1	431	40	17	
15	0	0	0	0	542	510	1	492	40	17	
0	0	0	0	0	540	510	3	570	40	17	
1	0	0	0	0	531	510	1	644	40	17	
2	0	0	0	0	519	508	0	659	40	17	
3	0	0	0	0	513	508	0	608	40	17	
4	0	0	0	0	518	508	3	588	40	17	
5	0	0	0	0	518	507	0	655	40	17	
6	0	0	0	0	509	507	0	698	40	17	
7	0	0	0	0	499	508	2	702	40	17	
8	0	0	0	0	492	507	3	649	40	17	
9	0	0	0	0	480	507	3	604	40	17	
10	0	0	0	0	479	505	3	531	40	17	
11	0	0	0	0	483	507	2	439	40	17	
12	0	0	0	0	504	507	3	434	40	17	
13	0	0	0	0	520	508	2	544	40	17	
14	0	0	0	0	531	509	3	690	40	17	
15	0	0	0	0	542	511	3	824	40	17	
0	0	0	0	0	542	510	3	923	40	17	
1	0	0	0	0	537	511	2	953	40	17	
2	0	0	0	0	529	512	3	896	40	17	
3	0	0	0	0	517	511	1	797	40	17	
4	0	0	0	0	517	510	2	661	40	17	
5	0	0	0	0	517	509	1	572	40	17	
6	0	0	0	0	517	509	1	500	40	17	
7	0	0	0	0	507	509	0	408	40	17	
8	0	0	0	0	499	509	3	339	40	17	
9	0	0	0	0	492	509	0	307	40	17	
10	0	0	0	0	483	510	0	287	40	17	
11	0	0	0	0	483	512	0	245	40	17	
12	0	0	0	0	492	509	3	192	40	17	
13	0	0	0	0	512	510	1	214	40	17	
14	0	0	0	0	529	510	2	375	40	17	
15	0	0	0	0	539	510	2	573	40	17	
0	0	0	0	0	541	510	1	747	40	17	
1	0	0	0	0	538	510	2	819	40	17	
2	0	0	0	0	531	511	3	856	40	17	
3	0	0	0	0	523	510	3	822	40	17	
4	0	0	0	0	513	510	3	748	40	17	
5	0	0	0	0	514	511	2	689	40	17	
6	0	0	0	0	516	510	2	653	40	17	
7	0	0	0	0	510	510	1	582	40	17	
8	0	0	0	0	503	510	2	484	40	17	
9	0	0	0	0	493	509	1	400	40	17	
10	0	0	0	0	484	510	0	291	40	17	
11	0	0	0	0	479	509	0	163	40	17	
12	0	0	0	0	479	509	2	59	40	17	
13	0	0	0	0	494	511	0	26	40	17	
14	0	0	0	0	518	509	1	67	40	17	
15	0	0	0	0	531	511	0	185	40	17	
0	0	0	0	0	541	511	3	340	40	17	
1	0	0	0	0	544	510	3	524	40	17	
2	0	0	0	0	539	509	2	651	40	17	
3	0	0	0	0	531	507	2	661	40	17	
4	0	0	0	0	519	506	3	590	40	17	
5	0	0	0	0	512	508	2	474	40	17	
6	0	0	0	0	515	508	3	403	40	17	
7	0	0	0	0	514	508	2	331	40	17	
8	0	0	0	0	507	507	3	250	40	17	
9	0	0	0	0	501	508	3	145	40	17	
10	0	0	0	0	496	508	1	44	40	17	
11	0	0	0	0	486	508	1	0	40	17	
12	0	0	0	0	483	507	3	0	40	17	
13	0	0	0	0	487	508	1	0	40	17	
14	0	0	0	0	502	509	0	0	40	17	
15	0	0	0	0	522	510	0	0	40	17	
0	0	0	0	0	533	508	3	0	40	17	
1	0	0	0	0	538	508	1	234	40	17	
2	0	0	0	0	541	509	2	349	40	17	
3	0	0	0	0	534	511	2	374	40	17	
4	0	0	0	0	527	510	3	367	40	17	
5	0	0	0	0	516	510	3	325	40	17	
6	0	0	0	0	511	511	2	249	40	17	
7	0	0	0	0	512	510	2	171	40	17	
8	0	0	0	0	511	510	3	127	40	17	
9	0	0	0	0	501	507	2	125	40	17	
10	0	0	0	0	497	508	3	116	40	17	
11	0	0	0	0	490	510	2	58	40	17	
12	0	0	0	0	482	511	2	0	40	17	
13	0	0	0	0	480	508	2	0	40	17	
14	0	0	0	0	492	509	1	0	40	17	
15	0	0	0	0	515	509	1	0	40	17	
0	0	0	0	0	531	508	1	184	40	17	
1	0	0	0	0	540	508	1	449	40	17	
2	0	0	0	0	544	511	1	676	40	17	
3	0	0	0	0	544	510	0	743	40	17	
4	0	0	0	0	536	508	2	747	40	17	
5	0	0	0	0	525	509	0	732	40	17	
6	0	0	0	0	514	510	0	654	40	17	
7	0	0	0	0	511	509	0	582	40	17	
8	0	0	0	0	512	509	3	529	40	17	
9	0	0	0	0	506	510	1	504	40	17	
10	0	0	0	0	504	509	2	469	40	17	
11	0	0	0	0	493	510	2	397	40	17	
12	0	0	0	0	484	508	2	323	40	17	
13	0	0	0	0	479	508	2	267	40	17	
14	0	0	0	0	476	509	2	229	40	17	
15	0	0	0	0	495	509	2	239	40	17	
0	0	0	0	0	516	509	3	341	40	17	
1	0	0	0	0	533	511	2	468	40	17	
2	0	0	0	0	540	513	1	623	40	17	
3	0	0	0	0	543	513	1	733	40	17	
4	0	0	0	0	541	511	3	845	40	17	
5	0	0	0	0	529	510	1	844	40	17	
6	0	0	0	0	519	508	1	749	40	17	
7	0	0	0	0	514	509	0	599	40	17	
8	0	0	0	0	514	510	2	451	40	17	
9	0	0	0	0	512	509	0	331	40	17	
10	0	0	0	0	506	510	0	259	40	17	
11	0	0	0	0	502	511	0	192	40	17	
12	0	0	0	0	492	509	1	128	40	17	
13	0	0	0	0	485	510	3	76	40	17	
14	0	0	0	0	480	510	2	36	40	17	
15	0	0	0	0	483	512	2	0	40	17	
0	0	0	0	0	504	512	3	25	40	17	
1	0	0	0	0	520	512	2	142	40	17	
2	0	0	0	0	535	514	3	355	40	17	
3	0	0	0	0	544	515	3	595	40	17	
4	0	0	0	0	542	513	2	792	40	17	
5	0	0	0	0	538	512	3	906	40	17	
6	0	0	0	0	527	511	3	929	40	17	
7	0	0	0	0	512	511	2	879	40	17	
8	0	0	0	0	516	512	2	840	40	17	
9	0	0	0	0	512	512	1	842	40	17	
10	0	0	0	0	511	512	0	808	40	17	
11	0	0	0	0	506	511	1	708	40	17	
12	0	0	0	0	498	510	3	609	40	17	
13	0	0	0	0	486	509	0	550	40	17	
14	0	0	0	0	483	509	1	487	40	17	
15	0	0	0	0	483	508	0	374	40	17	
0	0	0	0	0	491	508	3	270	40	17	
1	0	0	0	0	511	510	0	262	40	17	
2	0	0	0	0	528	510	3	415	40	17	
3	0	0	0	0	540	512	2	547	40	17	
4	0	0	0	0	540	512	3	644	40	17	
5	0	0	0	0	540	509	2	753	40	17	
6	0	0	0	0	532	510	3	785	40	17	
7	0	0	0	0	523	510	2	786	40	17	
8	0	0	0	0	510	510	3	736	40	17	
9	0	0	0	0	510	510	2	716	40	17	
10	0	0	0	0	514	510	3	687	40	17	
11	0	0	0	0	510	509	1	646	40	17	
12	0	0	0	0	506	508	2	598	40	17	
13	0	0	0	0	495	508	1	544	40	17	
14	0	0	0	0	486	509	0	438	40	17	
15	0	0	0	0	484	508	1	326	40	17	
0	0	0	0	0	483	509	2	252	40	17	
1	0	0	0	0	496	508	1	283	40	17	
2	0	0	0	0	515	510	1	420	40	17	
3	0	0	0	0	529	510	0	578	40	17	
4	0	0	0	0	542	512	3	720	40	17	
5	0	0	0	0	539	511	0	872	40	17	
6	0	0	0	0	537	511	1	953	40	17	
7	0	0	0	0	531	512	0	904	40	17	
8	0	0	0	0	520	512	1	793	40	17	
9	0	0	0	0	512	512	2	676	40	17	
10	0	0	0	0	513	514	3	565	40	17	
11	0	0	0	0	515	514	2	490	40	17	
12	0	0	0	0	508	515	2	448	40	17	
13	0	0	0	0	499	514	2	400	40	17	
14	0	0	0	0	491	513	3	291	40	17	
15	0	0	0	0	483	512	3	157	40	17	
0	0	0	0	0	482	512	2	63	40	17	
1	0	0	0	0	482	512	1	0	40	17	
2	0	0	0	0	502	513	1	0	40	17	
3	0	0	0	0	521	513	0	0	40	17	
4	0	0	0	0	534	511	3	0	40	17	
5	0	0	0	0	542	511	1	89	40	17	
6	0	0	0	0	542	512	0	186	40	17	
7	0	0	0	0	535	512	1	211	40	17	
8	0	0	0	0	526	513	3	224	40	17	
9	0	0	0	0	513	512	0	259	40	17	
10	0	0	0	0	511	512	0	254	40	17	
11	0	0	0	0	512	515	0	218	40	17	
12	0	0	0	0	513	515	3	179	40	17	
13	0	0	0	0	506	513	0	158	40	17	
14	0	0	0	0	496	513	0	118	40	17	
15	0	0	0	0	486	513	0	68	40	17	
0	0	0	0	0	479	512	2	11	40	17	
1	0	0	0	0	477	510	0	0	40	17	
2	0	0	0	0	483	510	0	0	40	17	
3	0	0	0	0	504	508	0	0	40	17	
4	0	0	0	0	519	506	2	198	40	17	
5	0	0	0	0	534	507	0	423	40	17	
6	0	0	0	0	539	509	2	584	40	17	
7	0	0	0	0	537	509	2	636	40	17	
8	0	0	0	0	529	509	3	650	40	17	
9	0	0	0	0	521	508	2	639	40	17	
10	0	0	0	0	510	507	2	615	40	17	
11	0	0	0	0	514	507	2	575	40	17	
12	0	0	0	0	515	509	3	520	40	17	
13	0	0	0	0	509	508	2	499	40	17	
14	0	0	0	0	503	510	2	481	40	17	
15	0	0	0	0	492	510	2	415	40	17	
0	0	0	0	0	488	510	3	337	40	17	
1	0	0	0	0	486	510	2	268	40	17	
2	0	0	0	0	487	510	3	186	40	17	
3	0	0	0	0	500	510	1	149	40	17	
4	0	0	0	0	523	511	2	134	40	17	
5	0	0	0	0	538	508	1	256	40	17	
6	0	0	0	0	552	509	1	413	40	17	
7	0	0	0	0	554	510	0	533	40	17	
8	0	0	0	0	549	508	1	674	40	17	
9	0	0	0	0	545	509	0	737	40	17	
10	0	0	0	0	537	508	0	712	40	17	
11	0	0	0	0	531	508	0	617	40	17	
12	0	0	0	0	531	507	2	569	40	17	
13	0	0	0	0	529	508	0	599	40	17	
14	0	0	0	0	519	508	1	617	40	17	
15	0	0	0	0	508	508	0	540	40	17	
0	0	0	0	0	494	509	3	419	40	17	
1	0	0	0	0	486	508	0	298	40	17	
2	0	0	0	0	484	510	0	183	40	17	
3	0	0	0	0	481	509	0	65	40	17	
4	0	0	0	0	500	509	1	3	40	17	
5	0	0	0	0	519	509	0	36	40	17	
6	0	0	0	0	531	508	0	146	40	17	
7	0	0	0	0	538	510	0	235	40	17	
8	0	0	0	0	537	509	3	295	40	17	
9	0	0	0	0	531	508	1	356	40	17	
10	0	0	0	0	517	508	1	421	40	17	
11	0	0	0	0	507	510	1	423	40	17	
12	0	0	0	0	502	510	2	394	40	17	
13	0	0	0	0	506	509	1	354	40	17	
14	0	0	0	0	504	509	1	300	40	17	
15	0	0	0	0	496	509	1	236	40	17	
0	0	0	0	0	490	506	2	165	40	17	
1	0	0	0	0	485	506	2	106	40	17	
2	0	0	0	0	479	505	1	49	40	17	
3	0	0	0	0	476	507	2	0	40	17	
4	0	0	0	0	486	508	3	0	40	17	
5	0	0	0	0	507	507	3	0	40	17	
6	0	0	0	0	523	506	1	175	40	17	
7	0	0	0	0	536	508	1	384	40	17	
8	0	0	0	0	540	506	3	577	40	17	
9	0	0	0	0	538	505	2	676	40	17	
10	0	0	0	0	531	505	1	700	40	17	
11	0	0	0	0	521	507	1	637	40	17	
12	0	0	0	0	509	507	2	515	40	17	
13	0	0	0	0	511	508	1	421	40	17	
14	0	0	0	0	509	509	1	357	40	17	
15	0	0	0	0	507	512	1	295	40	17	
0	0	0	0	0	502	510	2	237	40	17	
1	0	0	0	0	491	509	1	193	40	17	
2	0	0	0	0	485	510	1	156	40	17	
3	0	0	0	0	481	512	1	119	40	17	
4	0	0	0	0	482	510	2	123	40	17	
5	0	0	0	0	496	511	2	199	40	17	
6	0	0	0	0	516	512	3	257	40	17	
7	0	0	0	0	531	510	2	364	40	17	
8	0	0	0	0	541	511	3	524	40	17	
9	0	0	0	0	543	511	3	718	40	17	
10	0	0	0	0	542	509	3	880	40	17	
11	0	0	0	0	531	510	2	964	40	17	
12	0	0	0	0	521	511	3	946	40	17	
13	0	0	0	0	512	509	3	890	40	17	
14	0	0	0	0	516	509	3	853	40	17	
15	0	0	0	0	516	510	2	824	40	17	
0	0	0	0	0	505	509	3	777	40	17	
1	0	0	0	0	499	510	2	722	40	17	
2	0	0	0	0	494	511	3	624	40	17	
3	0	0	0	0	484	511	2	513	40	17	
4	0	0	0	0	481	510	3	468	40	17	
5	0	0	0	0	479	509	2	436	40	17	
6	0	0	0	0	504	511	2	497	40	17	
7	0	0	0	0	523	511	2	612	40	17	
8	0	0	0	0	539	509	3	742	40	17	
9	0	0	0	0	547	508	3	881	40	17	
10	0	0	0	0	545	508	1	971	40	17	
11	0	0	0	0	539	508	0	999	40	17	
12	0	0	0	0	531	506	2	965	40	17	
13	0	0	0	0	518	506	1	966	40	17	
14	0	0	0	0	519	508	0	935	40	17	
15	0	0	0	0	516	507	0	858	40	17	
0	0	0	0	0	513	506	3	784	40	17	
1	0	0	0	0	506	505	1	736	40	17	
2	0	0	0	0	501	507	3	665	40	17	
3	0	0	0	0	488	509	2	589	40	17	
4	0	0	0	0	479	510	1	511	40	17	
5	0	0	0	0	476	511	2	436	40	17	
6	0	0	0	0	486	510	2	370	40	17	
7	0	0	0	0	509	510	2	390	40	17	
8	0	0	0	0	528	511	3	488	40	17	
9	0	0	0	0	540	512	2	661	40	17	
10	0	0	0	0	542	513	2	822	40	17	
11	0	0	0	0	544	512	2	888	40	17	
12	0	0	0	0	534	514	4	922	40	17	
13	0	0	0	0	522	513	2	926	40	17	
14	0	0	0	0	512	513	3	876	40	17	
15	0	0	0	0	515	512	2	764	40	17	
0	0	0	0	0	513	511	2	679	40	17	
1	0	0	0	0	508	510	3	587	40	17	
2	0	0	0	0	502	510	3	514	40	17	
3	0	0	0	0	495	510	2	409	40	17	
4	0	0	0	0	484	509	3	286	40	17	
5	0	0	0	0	481	510	2	188	40	17	
6	0	0	0	0	483	510	3	103	40	17	
7	0	0	0	0	498	509	2	74	40	17	
8	0	0	0	0	517	510	4	132	40	17	
9	0	0	0	0	534	508	3	258	40	17	
10	0	0	0	0	542	510	3	408	40	17	
11	0	0	0	0	543	512	2	499	40	17	
12	0	0	0	0	537	512	3	559	40	17	
13	0	0	0	0	527	512	2	597	40	17	
14	0	0	0	0	519	513	3	564	40	17	
15	0	0	0	0	513	511	2	473	40	17	
0	0	0	0	0	515	511	2	404	40	17	
1	0	0	0	0	514	512	2	373	40	17	
2	0	0	0	0	509	511	3	334	40	17	
3	0	0	0	0	501	511	2	257	40	17	
4	0	0	0	0	493	510	3	180	40	17	
5	0	0	0	0	481	510	3	123	40	17	
6	0	0	0	0	480	510	3	76	40	17	
7	0	0	0	0	483	509	2	41	40	17	
8	0	0	0	0	502	509	3	72	40	17	
9	0	0	0	0	523	511	3	192	40	17	
10	0	0	0	0	538	512	3	373	40	17	
11	0	0	0	0	544	511	2	512	40	17	
12	0	0	0	0	543	510	3	580	40	17	
13	0	0	0	0	535	511	2	593	40	17	
14	0	0	0	0	525	510	1	580	40	17	
15	0	0	0	0	518	512	1	549	40	17	
0	0	0	0	0	514	512	2	564	40	17	
1	0	0	0	0	513	511	1	577	40	17	
2	0	0	0	0	512	511	1	587	40	17	
3	0	0	0	0	506	510	1	524	40	17	
4	0	0	0	0	498	509	3	449	40	17	
5	0	0	0	0	488	509	1	398	40	17	
6	0	0	0	0	482	510	1	357	40	17	
7	0	0	0	0	481	509	0	315	40	17	
8	0	0	0	0	492	508	3	293	40	17	
9	0	0	0	0	510	509	1	321	40	17	
10	0	0	0	0	529	508	0	471	40	17	
11	0	0	0	0	539	508	0	636	40	17	
12	0	0	0	0	543	509	2	752	40	17	
13	0	0	0	0	541	508	0	870	40	17	
14	0	0	0	0	532	510	1	942	40	17	
15	0	0	0	0	523	511	1	956	40	17	
0	0	0	0	0	510	513	3	903	40	17	
1	0	0	0	0	509	511	0	862	40	17	
2	0	0	0	0	508	513	3	839	40	17	
3	0	0	0	0	508	512	2	773	40	17	
4	0	0	0	0	499	511	2	699	40	17	
5	0	0	0	0	494	511	2	618	40	17	
6	0	0	0	0	489	510	2	513	40	17	
7	0	0	0	0	488	511	2	385	40	17	
8	0	0	0	0	485	511	3	270	40	17	
9	0	0	0	0	503	510	2	254	40	17	
10	0	0	0	0	522	510	2	316	40	17	
11	0	0	0	0	532	511	2	449	40	17	
12	0	0	0	0	541	510	3	605	40	17	
13	0	0	0	0	542	509	3	734	40	17	
14	0	0	0	0	536	510	3	836	40	17	
15	0	0	0	0	530	510	2	862	40	17	
0	0	0	0	0	518	508	2	855	40	17	
1	0	0	0	0	510	508	3	803	40	17	
2	0	0	0	0	512	510	3	766	40	17	
3	0	0	0	0	513	511	2	736	40	17	
4	0	0	0	0	506	509	3	675	40	17	
5	0	0	0	0	500	508	2	611	40	17	
6	0	0	0	0	492	509	2	530	40	17	
7	0	0	0	0	481	509	1	435	40	17	
8	0	0	0	0	481	510	2	373	40	17	
9	0	0	0	0	484	508	2	340	40	17	
10	0	0	0	0	507	511	1	361	40	17	
11	0	0	0	0	524	514	0	451	40	17	
12	0	0	0	0	538	513	3	593	40	17	
13	0	0	0	0	542	511	1	759	40	17	
14	0	0	0	0	540	510	0	890	40	17	
15	0	0	0	0	534	508	0	917	40	17	
0	0	0	0	0	525	506	2	870	40	17	
1	0	0	0	0	515	505	1	788	40	17	
2	0	0	0	0	512	505	3	703	40	17	
3	0	0	0	0	512	505	2	655	40	17	
4	0	0	0	0	512	505	3	644	40	17	
5	0	0	0	0	504	504	2	641	40	17	
6	0	0	0	0	497	504	3	599	40	17	
7	0	0	0	0	488	505	3	521	40	17	
8	0	0	0	0	481	505	3	423	40	17	
9	0	0	0	0	475	507	2	343	40	17	
10	0	0	0	0	486	508	1	276	40	17	
11	0	0	0	0	509	510	1	276	40	17	
12	0	0	0	0	527	512	2	431	40	17	
13	0	0	0	0	537	511	1	646	40	17	
14	0	0	0	0	541	512	0	830	40	17	
15	0	0	0	0	538	511	0	878	40	17	
0	0	0	0	0	532	512	4	889	40	17	
1	0	0	0	0	526	511	0	890	40	17	
2	0	0	0	0	518	509	1	824	40	17	
3	0	0	0	0	517	510	0	751	40	17	
4	0	0	0	0	519	510	3	678	40	17	
5	0	0	0	0	513	508	1	688	40	17	
6	0	0	0	0	506	511	3	702	40	17	
7	0	0	0	0	497	511	2	628	40	17	
8	0	0	0	0	489	511	3	536	40	17	
9	0	0	0	0	480	508	3	472	40	17	
10	0	0	0	0	477	510	2	439	40	17	
11	0	0	0	0	495	510	2	434	40	17	
12	0	0	0	0	515	510	4	528	40	17	
13	0	0	0	0	530	510	2	723	40	17	
14	0	0	0	0	538	511	3	934	40	17	
15	0	0	0	0	540	512	2	1012	40	17	
0	0	0	0	0	539	511	2	1019	40	17	
1	0	0	0	0	530	510	2	1018	40	17	
2	0	0	0	0	518	510	1	1018	40	17	
3	0	0	0	0	514	511	1	928	40	17	
4	0	0	0	0	515	509	2	783	40	17	
5	0	0	0	0	514	508	3	670	40	17	
6	0	0	0	0	505	507	1	583	40	17	
7	0	0	0	0	500	509	1	482	40	17	
8	0	0	0	0	493	509	3	394	40	17	
9	0	0	0	0	487	509	2	294	40	17	
10	0	0	0	0	484	509	1	220	40	17	
11	0	0	0	0	483	508	1	158	40	17	
12	0	0	0	0	501	510	2	189	40	17	
13	0	0	0	0	521	508	1	297	40	17	
14	0	0	0	0	538	510	1	482	40	17	
15	0	0	0	0	540	511	1	687	40	17	
0	0	0	0	0	540	510	2	781	40	17	
1	0	0	0	0	532	509	1	754	40	17	
2	0	0	0	0	525	511	1	683	40	17	
3	0	0	0	0	515	512	1	566	40	17	
4	0	0	0	0	513	511	1	447	40	17	
5	0	0	0	0	518	510	1	381	40	17	
6	0	0	0	0	512	510	1	343	40	17	
7	0	0	0	0	505	509	0	266	40	17	
8	0	0	0	0	496	510	3	200	40	17	
9	0	0	0	0	482	506	1	151	40	17	
10	0	0	0	0	480	507	1	82	40	17	
11	0	0	0	0	478	508	0	3	40	17	
12	0	0	0	0	489	507	3	0	40	17	
13	0	0	0	0	515	507	1	0	40	17	
14	0	0	0	0	532	506	0	125	40	17	
15	0	0	0	0	541	506	0	224	40	17	
0	0	0	0	0	549	507	2	344	40	17	
1	0	0	0	0	542	508	1	485	40	17	
2	0	0	0	0	537	509	3	535	40	17	
3	0	0	0	0	524	511	2	504	40	17	
4	0	0	0	0	511	511	3	430	40	17	
5	0	0	0	0	513	510	1	371	40	17	
6	0	0	0	0	516	511	2	321	40	17	
7	0	0	0	0	512	515	2	283	40	17	
8	0	0	0	0	504	511	1	291	40	17	
9	0	0	0	0	495	511	3	292	40	17	
10	0	0	0	0	485	511	2	257	40	17	
11	0	0	0	0	480	509	2	181	40	17	
12	0	0	0	0	481	510	3	138	40	17	
13	0	0	0	0	498	510	2	127	40	17	
14	0	0	0	0	515	511	3	222	40	17	
15	0	0	0	0	529	512	2	369	40	17	
0	0	0	0	0	539	511	2	572	40	17	
1	0	0	0	0	545	512	3	774	40	17	
2	0	0	0	0	540	513	3	930	40	17	
3	0	0	0	0	528	512	2	960	40	17	
4	0	0	0	0	518	511	2	919	40	17	
5	0	0	0	0	508	510	1	842	40	17	
6	0	0	0	0	511	511	0	779	40	17	
7	0	0	0	0	515	514	1	744	40	17	
8	0	0	0	0	508	512	3	718	40	17	
9	0	0	0	0	499	512	2	690	40	17	
10	0	0	0	0	490	511	3	618	40	17	
11	0	0	0	0	482	511	1	492	40	17	
12	0	0	0	0	481	511	3	415	40	17	
13	0	0	0	0	484	511	0	381	40	17	
14	0	0	0	0	508	510	2	393	40	17	
15	0	0	0	0	525	509	2	405	40	17	
0	0	0	0	0	538	509	3	473	40	17	
1	0	0	0	0	544	509	3	659	40	17	
2	0	0	0	0	541	507	3	836	40	17	
3	0	0	0	0	535	508	2	920	40	17	
4	0	0	0	0	528	509	2	884	40	17	
5	0	0	0	0	519	507	2	841	40	17	
6	0	0	0	0	512	508	1	805	40	17	
7	0	0	0	0	513	509	0	748	40	17	
8	0	0	0	0	511	510	2	691	40	17	
9	0	0	0	0	504	507	0	634	40	17	
10	0	0	0	0	499	508	0	568	40	17	
11	0	0	0	0	492	508	1	481	40	17	
12	0	0	0	0	484	507	3	366	40	17	
13	0	0	0	0	486	507	2	271	40	17	
14	0	0	0	0	495	509	3	223	40	17	
15	0	0	0	0	513	510	2	227	40	17	
0	0	0	0	0	531	510	3	342	40	17	
1	0	0	0	0	541	508	2	508	40	17	
2	0	0	0	0	545	511	2	688	40	17	
3	0	0	0	0	540	513	2	794	40	17	
4	0	0	0	0	533	511	3	830	40	17	
5	0	0	0	0	521	511	1	849	40	17	
6	0	0	0	0	510	511	1	836	40	17	
7	0	0	0	0	513	512	0	804	40	17	
8	0	0	0	0	514	511	3	811	40	17	
9	0	0	0	0	510	511	0	841	40	17	
10	0	0	0	0	504	514	1	783	40	17	
11	0	0	0	0	497	511	2	684	40	17	
12	0	0	0	0	489	509	1	577	40	17	
13	0	0	0	0	483	509	2	439	40	17	
14	0	0	0	0	480	508	3	314	40	17	
15	0	0	0	0	497	507	2	222	40	17	
0	0	0	0	0	516	509	3	183	40	17	
1	0	0	0	0	528	508	3	238	40	17	
2	0	0	0	0	540	509	3	324	40	17	
3	0	0	0	0	540	510	3	380	40	17	
4	0	0	0	0	539	510	3	420	40	17	
5	0	0	0	0	529	509	3	470	40	17	
6	0	0	0	0	522	510	3	431	40	17	
7	0	0	0	0	515	510	2	335	40	17	
8	0	0	0	0	515	510	3	291	40	17	
9	0	0	0	0	515	511	3	297	40	17	
10	0	0	0	0	506	512	1	257	40	17	
11	0	0	0	0	502	514	1	175	40	17	
12	0	0	0	0	494	514	2	102	40	17	
13	0	0	0	0	483	513	1	67	40	17	
14	0	0	0	0	484	511	0	41	40	17	
15	0	0	0	0	483	510	0	0	40	17	
0	0	0	0	0	503	510	3	0	40	17	
1	0	0	0	0	524	510	0	109	40	17	
2	0	0	0	0	536	513	0	270	40	17	
3	0	0	0	0	540	513	0	375	40	17	
4	0	0	0	0	541	512	2	526	40	17	
5	0	0	0	0	535	511	0	576	40	17	
6	0	0	0	0	526	510	0	568	40	17	
7	0	0	0	0	517	508	0	499	40	17	
8	0	0	0	0	514	510	3	420	40	17	
9	0	0	0	0	514	509	0	373	40	17	
10	0	0	0	0	513	510	1	317	40	17	
11	0	0	0	0	505	511	0	232	40	17	
12	0	0	0	0	492	510	4	158	40	17	
13	0	0	0	0	486	508	0	117	40	17	
14	0	0	0	0	480	508	1	59	40	17	
15	0	0	0	0	477	508	0	0	40	17	
0	0	0	0	0	488	511	3	0	40	17	
1	0	0	0	0	509	511	1	0	40	17	
2	0	0	0	0	525	511	2	193	40	17	
3	0	0	0	0	539	512	2	288	40	17	
4	0	0	0	0	541	512	3	349	40	17	
5	0	0	0	0	540	510	3	438	40	17	
6	0	0	0	0	532	512	3	450	40	17	
7	0	0	0	0	521	512	2	407	40	17	
8	0	0	0	0	511	510	3	339	40	17	
9	0	0	0	0	515	510	2	267	40	17	
10	0	0	0	0	517	510	2	193	40	17	
11	0	0	0	0	509	511	2	123	40	17	
12	0	0	0	0	503	511	2	71	40	17	
13	0	0	0	0	497	511	2	14	40	17	
14	0	0	0	0	487	512	2	0	40	17	
15	0	0	0	0	481	513	2	0	40	17	
0	0	0	0	0	479	509	1	0	40	17	
1	0	0	0	0	494	510	2	0	40	17	
2	0	0	0	0	516	511	2	0	40	17	
3	0	0	0	0	530	510	2	243	40	17	
4	0	0	0	0	541	509	1	456	40	17	
5	0	0	0	0	542	510	2	636	40	17	
6	0	0	0	0	536	511	3	760	40	17	
7	0	0	0	0	526	511	2	796	40	17	
8	0	0	0	0	514	512	3	753	40	17	
9	0	0	0	0	511	510	3	705	40	17	
10	0	0	0	0	516	510	3	679	40	17	
11	0	0	0	0	518	511	2	650	40	17	
12	0	0	0	0	509	508	3	620	40	17	
13	0	0	0	0	500	508	2	579	40	17	
14	0	0	0	0	488	508	3	500	40	17	
15	0	0	0	0	481	510	2	426	40	17	
0	0	0	0	0	480	510	2	373	40	17	
1	0	0	0	0	482	509	2	357	40	17	
2	0	0	0	0	506	510	2	398	40	17	
3	0	0	0	0	524	512	2	462	40	17	
4	0	0	0	0	537	513	3	551	40	17	
5	0	0	0	0	539	511	2	765	40	17	
6	0	0	0	0	540	512	2	950	40	17	
7	0	0	0	0	537	513	2	1005	40	17	
8	0	0	0	0	530	511	3	963	40	17	
9	0	0	0	0	518	508	3	937	40	17	
10	0	0	0	0	514	509	2	921	40	17	
11	0	0	0	0	515	510	1	872	40	17	
12	0	0	0	0	512	508	1	854	40	17	
13	0	0	0	0	505	508	1	801	40	17	
14	0	0	0	0	495	509	1	707	40	17	
15	0	0	0	0	489	507	0	590	40	17	
0	0	0	0	0	481	510	1	444	40	17	
1	0	0	0	0	478	510	1	313	40	17	
2	0	0	0	0	486	510	1	249	40	17	
3	0	0	0	0	511	512	1	287	40	17	
4	0	0	0	0	531	510	1	477	40	17	
5	0	0	0	0	540	510	1	743	40	17	
6	0	0	0	0	545	511	1	957	40	17	
7	0	0	0	0	545	512	1	1016	40	17	
8	0	0	0	0	536	510	3	996	40	17	
9	0	0	0	0	524	510	1	966	40	17	
10	0	0	0	0	511	511	1	894	40	17	
11	0	0	0	0	515	510	0	846	40	17	
12	0	0	0	0	515	508	2	817	40	17	
13	0	0	0	0	504	510	0	809	40	17	
14	0	0	0	0	502	508	1	745	40	17	
15	0	0	0	0	495	509	0	645	40	17	
0	0	0	0	0	485	508	1	528	40	17	
1	0	0	0	0	478	506	2	428	40	17	
2	0	0	0	0	478	508	3	337	40	17	
3	0	0	0	0	499	509	2	270	40	17	
4	0	0	0	0	519	509	3	270	40	17	
5	0	0	0	0	530	508	2	407	40	17	
6	0	0	0	0	537	508	2	551	40	17	
7	0	0	0	0	540	509	1	637	40	17	
8	0	0	0	0	535	508	1	698	40	17	
9	0	0	0	0	525	508	1	727	40	17	
10	0	0	0	0	519	507	0	725	40	17	
11	0	0	0	0	515	507	0	633	40	17	
12	0	0	0	0	520	505	3	541	40	17	
13	0	0	0	0	519	505	0	538	40	17	
14	0	0	0	0	509	507	1	528	40	17	
15	0	0	0	0	501	509	2	489	40	17	
0	0	0	0	0	493	509	3	411	40	17	
1	0	0	0	0	484	509	2	376	40	17	
2	0	0	0	0	482	510	2	325	40	17	
3	0	0	0	0	483	510	2	260	40	17	
4	0	0	0	0	503	511	3	272	40	17	
5	0	0	0	0	521	512	3	385	40	17	
6	0	0	0	0	539	512	1	602	40	17	
7	0	0	0	0	546	513	1	763	40	17	
8	0	0	0	0	542	512	1	882	40	17	
9	0	0	0	0	532	512	0	939	40	17	
10	0	0	0	0	524	513	0	901	40	17	
11	0	0	0	0	514	513	0	790	40	17	
12	0	0	0	0	511	512	3	726	40	17	
13	0	0	0	0	514	510	1	751	40	17	
14	0	0	0	0	513	512	2	778	40	17	
15	0	0	0	0	503	511	2	729	40	17	
0	0	0	0	0	493	510	3	601	40	17	
1	0	0	0	0	486	512	2	439	40	17	
2	0	0	0	0	479	512	3	313	40	17	
3	0	0	0	0	479	510	1	216	40	17	
4	0	0	0	0	489	509	2	162	40	17	
5	0	0	0	0	509	508	1	240	40	17	
6	0	0	0	0	529	511	0	460	40	17	
7	0	0	0	0	540	511	1	598	40	17	
8	0	0	0	0	541	511	4	693	40	17	
9	0	0	0	0	545	511	3	773	40	17	
10	0	0	0	0	534	511	3	792	40	17	
11	0	0	0	0	520	511	2	729	40	17	
12	0	0	0	0	512	513	3	608	40	17	
13	0	0	0	0	511	513	2	534	40	17	
14	0	0	0	0	513	513	1	466	40	17	
15	0	0	0	0	512	512	0	376	40	17	
0	0	0	0	0	507	511	3	287	40	17	
1	0	0	0	0	496	512	0	190	40	17	
2	0	0	0	0	484	511	0	77	40	17	
3	0	0	0	0	479	510	2	0	40	17	
4	0	0	0	0	481	510	3	0	40	17	
5	0	0	0	0	500	510	2	0	40	17	
6	0	0	0	0	519	510	3	0	40	17	
7	0	0	0	0	534	510	2	0	40	17	
8	0	0	0	0	541	512	2	193	40	17	
9	0	0	0	0	541	512	2	417	40	17	
10	0	0	0	0	538	510	1	566	40	17	
11	0	0	0	0	531	509	0	588	40	17	
12	0	0	0	0	515	507	2	583	40	17	
13	0	0	0	0	512	506	0	565	40	17	
14	0	0	0	0	512	509	1	568	40	17	
15	0	0	0	0	513	509	2	564	40	17	
0	0	0	0	0	508	509	3	539	40	17	
1	0	0	0	0	504	510	2	503	40	17	
2	0	0	0	0	492	511	2	425	40	17	
3	0	0	0	0	485	512	2	312	40	17	
4	0	0	0	0	480	511	1	207	40	17	
5	0	0	0	0	482	510	3	135	40	17	
6	0	0	0	0	505	511	2	138	40	17	
7	0	0	0	0	525	512	1	191	40	17	
8	0	0	0	0	538	514	2	308	40	17	
9	0	0	0	0	543	511	1	569	40	17	
10	0	0	0	0	543	512	1	783	40	17	
11	0	0	0	0	534	512	0	889	40	17	
12	0	0	0	0	527	510	2	917	40	17	
13	0	0	0	0	515	512	0	896	40	17	
14	0	0	0	0	513	511	0	834	40	17	
15	0	0	0	0	513	511	0	775	40	17	
0	0	0	0	0	510	513	1	735	40	17	
1	0	0	0	0	504	512	0	694	40	17	
2	0	0	0	0	497	513	0	639	40	17	
3	0	0	0	0	486	512	2	540	40	17	
4	0	0	0	0	480	512	3	433	40	17	
5	0	0	0	0	477	512	2	387	40	17	
6	0	0	0	0	487	514	2	369	40	17	
7	0	0	0	0	512	513	3	425	40	17	
8	0	0	0	0	530	512	3	643	40	17	
9	0	0	0	0	539	511	3	838	40	17	
10	0	0	0	0	546	512	1	978	40	17	
11	0	0	0	0	543	510	1	1017	40	17	
12	0	0	0	0	536	509	3	1018	40	17	
13	0	0	0	0	525	509	1	1018	40	17	
14	0	0	0	0	514	511	0	1018	40	17	
15	0	0	0	0	517	511	0	963	40	17	
0	0	0	0	0	514	510	3	829	40	17	
1	0	0	0	0	508	509	2	743	40	17	
2	0	0	0	0	505	509	3	663	40	17	
3	0	0	0	0	490	508	2	577	40	17	
4	0	0	0	0	486	510	1	492	40	17	
5	0	0	0	0	482	510	2	399	40	17	
6	0	0	0	0	483	511	3	325	40	17	
7	0	0	0	0	497	513	1	324	40	17	
8	0	0	0	0	517	512	3	424	40	17	
9	0	0	0	0	531	512	1	573	40	17	
10	0	0	0	0	540	510	1	712	40	17	
11	0	0	0	0	540	510	0	812	40	17	
12	0	0	0	0	538	510	4	898	40	17	
13	0	0	0	0	529	509	0	976	40	17	
14	0	0	0	0	519	510	2	1017	40	17	
15	0	0	0	0	516	511	2	937	40	17	
0	0	0	0	0	518	511	4	819	40	17	
1	0	0	0	0	516	511	2	771	40	17	
2	0	0	0	0	508	512	3	721	40	17	
3	0	0	0	0	500	511	2	645	40	17	
4	0	0	0	0	493	512	2	552	40	17	
5	0	0	0	0	482	510	2	482	40	17	
6	0	0	0	0	483	512	1	430	40	17	
7	0	0	0	0	483	511	0	363	40	17	
8	0	0	0	0	506	512	3	361	40	17	
9	0	0	0	0	524	512	0	426	40	17	
10	0	0	0	0	537	513	1	571	40	17	
11	0	0	0	0	542	513	2	682	40	17	
12	0	0	0	0	541	515	3	767	40	17	
13	0	0	0	0	533	513	2	814	40	17	
14	0	0	0	0	522	514	2	778	40	17	
15	0	0	0	0	512	515	2	717	40	17	
0	0	0	0	0	510	513	1	704	40	17	
1	0	0	0	0	512	512	3	724	40	17	
2	0	0	0	0	515	513	1	729	40	17	
3	0	0	0	0	508	512	1	655	40	17	
4	0	0	0	0	496	510	3	557	40	17	
5	0	0	0	0	483	510	1	467	40	17	
6	0	0	0	0	479	510	1	358	40	17	
7	0	0	0	0	481	512	0	294	40	17	
8	0	0	0	0	492	512	1	266	40	17	
9	0	0	0	0	512	511	1	333	40	17	
10	0	0	0	0	529	511	3	583	40	17	
11	0	0	0	0	536	511	2	803	40	17	
12	0	0	0	0	544	511	3	980	40	17	
13	0	0	0	0	543	509	3	1018	40	17	
14	0	0	0	0	534	509	3	1018	40	17	
15	0	0	0	0	520	510	3	1018	40	17	
0	0	0	0	0	509	512	3	803	40	17	
1	0	0	0	0	513	510	3	629	40	17	
2	0	0	0	0	514	512	1	482	40	17	
3	0	0	0	0	508	512	1	352	40	17	
4	0	0	0	0	507	511	2	259	40	17	
5	0	0	0	0	498	511	1	163	40	17	
6	0	0	0	0	487	511	1	58	40	17	
7	0	0	0	0	484	510	0	0	40	17	
8	0	0	0	0	480	510	1	0	40	17	
9	0	0	0	0	499	512	0	0	40	17	
10	0	0	0	0	522	513	0	0	40	17	
11	0	0	0	0	535	511	0	0	40	17	
12	0	0	0	0	540	511	3	172	40	17	
13	0	0	0	0	543	510	3	332	40	17	
14	0	0	0	0	534	509	2	456	40	17	
15	0	0	0	0	527	510	2	476	40	17	
0	0	0	0	0	518	511	3	418	40	17	
1	0	0	0	0	512	509	2	342	40	17	
2	0	0	0	0	514	509	2	252	40	17	
3	0	0	0	0	517	508	2	171	40	17	
4	0	0	0	0	511	509	2	88	40	17	
5	0	0	0	0	504	508	0	7	40	17	
6	0	0	0	0	489	508	0	0	40	17	
7	0	0	0	0	485	510	0	0	40	17	
8	0	0	0	0	477	508	2	0	40	17	
9	0	0	0	0	479	509	0	0	40	17	
10	0	0	0	0	503	512	2	0	40	17	
11	0	0	0	0	523	510	2	0	40	17	
12	0	0	0	0	536	511	3	292	40	17	
13	0	0	0	0	543	510	2	600	40	17	
14	0	0	0	0	539	511	2	859	40	17	
15	0	0	0	0	535	512	2	963	40	17	
0	0	0	0	0	532	511	4	951	40	17	
1	0	0	0	0	520	510	3	921	40	17	
2	0	0	0	0	515	508	2	823	40	17	
3	0	0	0	0	515	508	1	718	40	17	
4	0	0	0	0	510	508	1	588	40	17	
5	0	0	0	0	502	506	1	514	40	17	
6	0	0	0	0	495	507	1	475	40	17	
7	0	0	0	0	489	508	0	403	40	17	
8	0	0	0	0	481	508	3	316	40	17	
9	0	0	0	0	480	508	0	253	40	17	
10	0	0	0	0	492	508	2	209	40	17	
11	0	0	0	0	513	509	2	257	40	17	
12	0	0	0	0	530	508	2	405	40	17	
13	0	0	0	0	537	508	2	615	40	17	
14	0	0	0	0	545	511	2	849	40	17	
15	0	0	0	0	542	512	3	991	40	17	
0	0	0	0	0	531	512	3	1017	40	17	
1	0	0	0	0	526	510	2	1018	40	17	
2	0	0	0	0	511	512	1	1018	40	17	
3	0	0	0	0	512	513	0	1017	40	17	
4	0	0	0	0	511	514	3	851	40	17	
5	0	0	0	0	507	511	1	755	40	17	
6	0	0	0	0	504	512	1	680	40	17	
7	0	0	0	0	497	510	0	596	40	17	
8	0	0	0	0	486	510	3	487	40	17	
9	0	0	0	0	479	509	2	411	40	17	
10	0	0	0	0	480	510	3	358	40	17	
11	0	0	0	0	502	510	2	346	40	17	
12	0	0	0	0	523	511	3	370	40	17	
13	0	0	0	0	531	509	2	447	40	17	
14	0	0	0	0	542	511	3	545	40	17	
15	0	0	0	0	544	511	2	587	40	17	
0	0	0	0	0	538	510	2	619	40	17	
1	0	0	0	0	528	512	1	623	40	17	
2	0	0	0	0	515	514	1	598	40	17	
3	0	0	0	0	509	515	0	514	40	17	
4	0	0	0	0	512	512	3	472	40	17	
5	0	0	0	0	513	512	1	489	40	17	
6	0	0	0	0	505	512	1	489	40	17	
7	0	0	0	0	498	512	0	423	40	17	
8	0	0	0	0	488	512	3	351	40	17	
9	0	0	0	0	481	510	3	330	40	17	
10	0	0	0	0	480	512	2	286	40	17	
11	0	0	0	0	484	512	2	226	40	17	
12	0	0	0	0	508	512	3	185	40	17	
13	0	0	0	0	527	512	2	241	40	17	
14	0	0	0	0	539	511	2	339	40	17	
15	0	0	0	0	546	511	1	521	40	17	
0	0	0	0	0	541	509	3	687	40	17	
1	0	0	0	0	536	510	0	827	40	17	
2	0	0	0	0	527	511	1	899	40	17	
3	0	0	0	0	512	512	0	854	40	17	
4	0	0	0	0	510	509	3	797	40	17	
5	0	0	0	0	514	509	3	807	40	17	
6	0	0	0	0	510	508	2	766	40	17	
7	0	0	0	0	505	508	2	638	40	17	
8	0	0	0	0	497	510	2	470	40	17	
9	0	0	0	0	487	510	2	321	40	17	
10	0	0	0	0	478	511	3	198	40	17	
11	0	0	0	0	476	511	2	92	40	17	
12	0	0	0	0	486	510	3	37	40	17	
13	0	0	0	0	509	510	2	132	40	17	
14	0	0	0	0	527	509	3	387	40	17	
15	0	0	0	0	542	509	2	613	40	17	
0	0	0	0	0	545	508	2	775	40	17	
1	0	0	0	0	537	508	3	914	40	17	
2	0	0	0	0	536	508	1	1004	40	17	
3	0	0	0	0	526	509	0	1001	40	17	
4	0	0	0	0	516	511	3	936	40	17	
5	0	0	0	0	519	513	0	892	40	17	
6	0	0	0	0	519	512	1	818	40	17	
7	0	0	0	0	513	511	1	677	40	17	
8	0	0	0	0	503	509	1	536	40	17	
9	0	0	0	0	491	510	3	397	40	17	
10	0	0	0	0	483	510	2	276	40	17	
11	0	0	0	0	478	509	2	172	40	17	
12	0	0	0	0	480	506	2	81	40	17	
13	0	0	0	0	498	507	3	82	40	17	
14	0	0	0	0	514	508	2	152	40	17	
15	0	0	0	0	531	510	2	267	40	17	
0	0	0	0	0	541	508	3	403	40	17	
1	0	0	0	0	542	509	3	556	40	17	
2	0	0	0	0	538	509	3	705	40	17	
3	0	0	0	0	528	510	1	755	40	17	
4	0	0	0	0	517	510	2	724	40	17	
5	0	0	0	0	513	510	1	653	40	17	
6	0	0	0	0	508	510	1	578	40	17	
7	0	0	0	0	511	510	0	540	40	17	
8	0	0	0	0	508	508	3	487	40	17	
9	0	0	0	0	506	507	0	451	40	17	
10	0	0	0	0	497	508	1	390	40	17	
11	0	0	0	0	486	510	0	304	40	17	
12	0	0	0	0	483	509	3	215	40	17	
13	0	0	0	0	491	509	3	156	40	17	
14	0	0	0	0	509	511	2	144	40	17	
15	0	0	0	0	525	511	2	175	40	17	
0	0	0	0	0	537	511	1	279	40	17	
1	0	0	0	0	543	511	2	443	40	17	
2	0	0	0	0	539	511	2	634	40	17	
3	0	0	0	0	536	511	2	768	40	17	
4	0	0	0	0	525	509	2	790	40	17	
5	0	0	0	0	512	510	3	743	40	17	
6	0	0	0	0	512	511	3	673	40	17	
7	0	0	0	0	512	511	2	631	40	17	
8	0	0	0	0	507	511	2	626	40	17	
9	0	0	0	0	499	510	2	599	40	17	
10	0	0	0	0	498	508	1	567	40	17	
11	0	0	0	0	493	509	1	455	40	17	
12	0	0	0	0	483	508	3	361	40	17	
13	0	0	0	0	482	508	0	269	40	17	
14	0	0	0	0	491	509	0	182	40	17	
15	0	0	0	0	514	508	0	156	40	17	
0	0	0	0	0	531	506	2	272	40	17	
1	0	0	0	0	541	507	1	471	40	17	
2	0	0	0	0	543	509	2	619	40	17	
3	0	0	0	0	538	508	2	658	40	17	
4	0	0	0	0	536	506	3	643	40	17	
5	0	0	0	0	521	507	3	643	40	17	
6	0	0	0	0	510	508	2	609	40	17	
7	0	0	0	0	512	509	2	569	40	17	
8	0	0	0	0	515	510	3	512	40	17	
9	0	0	0	0	509	509	3	517	40	17	
10	0	0	0	0	500	508	1	532	40	17	
11	0	0	0	0	495	509	1	539	40	17	
12	0	0	0	0	483	510	3	500	40	17	
13	0	0	0	0	480	510	1	426	40	17	
14	0	0	0	0	481	511	0	352	40	17	
15	0	0	0	0	500	511	0	318	40	17	
0	0	0	0	0	517	509	1	427	40	17	
1	0	0	0	0	534	509	0	551	40	17	
2	0	0	0	0	544	509	3	633	40	17	
3	0	0	0	0	543	510	2	627	40	17	
4	0	0	0	0	538	511	3	647	40	17	
5	0	0	0	0	527	509	3	670	40	17	
6	0	0	0	0	516	508	3	617	40	17	
7	0	0	0	0	510	509	2	484	40	17	
8	0	0	0	0	517	508	3	383	40	17	
9	0	0	0	0	518	508	3	332	40	17	
10	0	0	0	0	509	508	3	271	40	17	
11	0	0	0	0	499	507	2	166	40	17	
12	0	0	0	0	486	508	3	55	40	17	
13	0	0	0	0	480	509	3	0	40	17	
14	0	0	0	0	478	509	2	0	40	17	
15	0	0	0	0	484	511	2	0	40	17	
0	0	0	0	0	508	511	2	0	40	17	
1	0	0	0	0	531	509	2	0	40	17	
2	0	0	0	0	542	508	3	208	40	17	
3	0	0	0	0	543	509	2	323	40	17	
4	0	0	0	0	541	507	3	357	40	17	
5	0	0	0	0	531	507	3	366	40	17	
6	0	0	0	0	522	507	3	390	40	17	
7	0	0	0	0	513	508	2	358	40	17	
8	0	0	0	0	516	507	1	323	40	17	
9	0	0	0	0	512	507	3	330	40	17	
10	0	0	0	0	508	508	2	348	40	17	
11	0	0	0	0	503	509	1	306	40	17	
12	0	0	0	0	493	507	2	272	40	17	
13	0	0	0	0	487	507	1	245	40	17	
14	0	0	0	0	479	505	0	233	40	17	
15	0	0	0	0	478	505	0	203	40	17	
0	0	0	0	0	489	507	2	209	40	17	
1	0	0	0	0	514	508	0	352	40	17	
2	0	0	0	0	531	508	0	574	40	17	
3	0	0	0	0	540	509	1	816	40	17	
4	0	0	0	0	545	510	3	969	40	17	
5	0	0	0	0	541	510	3	1018	40	17	
6	0	0	0	0	534	511	3	1018	40	17	
7	0	0	0	0	523	512	2	1018	40	17	
8	0	0	0	0	515	513	4	1019	40	17	
9	0	0	0	0	518	511	2	896	40	17	
10	0	0	0	0	521	508	3	774	40	17	
11	0	0	0	0	506	507	2	640	40	17	
12	0	0	0	0	499	507	3	534	40	17	
13	0	0	0	0	494	508	3	435	40	17	
14	0	0	0	0	482	508	1	350	40	17	
15	0	0	0	0	480	508	0	248	40	17	
0	0	0	0	0	482	510	3	165	40	17	
1	0	0	0	0	499	509	0	203	40	17	
2	0	0	0	0	517	508	1	343	40	17	
3	0	0	0	0	536	510	0	478	40	17	
4	0	0	0	0	540	508	3	580	40	17	
5	0	0	0	0	546	508	3	696	40	17	
6	0	0	0	0	541	508	3	734	40	17	
7	0	0	0	0	531	510	2	697	40	17	
8	0	0	0	0	524	509	3	639	40	17	
9	0	0	0	0	514	508	2	576	40	17	
10	0	0	0	0	511	511	3	527	40	17	
11	0	0	0	0	513	510	3	481	40	17	
12	0	0	0	0	505	511	3	441	40	17	
13	0	0	0	0	499	510	2	413	40	17	
14	0	0	0	0	485	511	3	351	40	17	
15	0	0	0	0	480	512	3	274	40	17	
0	0	0	0	0	479	513	1	249	40	17	
1	0	0	0	0	484	513	2	244	40	17	
2	0	0	0	0	504	513	1	276	40	17	
3	0	0	0	0	525	512	0	327	40	17	
4	0	0	0	0	540	512	1	452	40	17	
5	0	0	0	0	546	512	0	613	40	17	
6	0	0	0	0	541	510	0	784	40	17	
7	0	0	0	0	537	512	0	851	40	17	
8	0	0	0	0	524	510	2	843	40	17	
9	0	0	0	0	511	510	3	789	40	17	
10	0	0	0	0	512	509	2	702	40	17	
11	0	0	0	0	513	510	2	639	40	17	
12	0	0	0	0	509	510	1	580	40	17	
13	0	0	0	0	504	510	2	498	40	17	
14	0	0	0	0	493	511	2	422	40	17	
15	0	0	0	0	486	511	2	360	40	17	
0	0	0	0	0	480	511	1	330	40	17	
1	0	0	0	0	482	511	1	272	40	17	
2	0	0	0	0	493	512	0	237	40	17	
3	0	0	0	0	514	511	0	234	40	17	
4	0	0	0	0	530	508	1	338	40	17	
5	0	0	0	0	540	508	0	511	40	17	
6	0	0	0	0	546	508	2	702	40	17	
7	0	0	0	0	539	508	2	822	40	17	
8	0	0	0	0	529	508	1	847	40	17	
9	0	0	0	0	522	509	3	823	40	17	
10	0	0	0	0	513	507	2	739	40	17	
11	0	0	0	0	518	509	2	648	40	17	
12	0	0	0	0	516	508	3	587	40	17	
13	0	0	0	0	509	507	2	579	40	17	
14	0	0	0	0	505	508	3	592	40	17	
15	0	0	0	0	494	510	2	567	40	17	
0	0	0	0	0	484	511	2	492	40	17	
1	0	0	0	0	481	510	2	424	40	17	
2	0	0	0	0	481	508	1	385	40	17	
3	0	0	0	0	500	509	1	355	40	17	
4	0	0	0	0	520	509	2	440	40	17	
5	0	0	0	0	535	510	0	636	40	17	
6	0	0	0	0	544	510	1	820	40	17	
7	0	0	0	0	551	510	0	883	40	17	
8	0	0	0	0	543	510	3	912	40	17	
9	0	0	0	0	530	507	0	911	40	17	
10	0	0	0	0	519	506	0	854	40	17	
11	0	0	0	0	511	508	0	708	40	17	
12	0	0	0	0	511	509	3	585	40	17	
13	0	0	0	0	509	509	0	532	40	17	
14	0	0	0	0	503	510	0	475	40	17	
15	0	0	0	0	498	510	0	344	40	17	
0	0	0	0	0	485	510	2	219	40	17	
1	0	0	0	0	486	512	0	109	40	17	
2	0	0	0	0	482	513	0	42	40	17	
3	0	0	0	0	483	513	0	0	40	17	
4	0	0	0	0	506	512	3	0	40	17	
5	0	0	0	0	527	511	0	108	40	17	
6	0	0	0	0	540	510	0	289	40	17	
7	0	0	0	0	545	511	0	424	40	17	
8	0	0	0	0	543	509	2	499	40	17	
9	0	0	0	0	533	507	0	498	40	17	
10	0	0	0	0	523	507	0	466	40	17	
11	0	0	0	0	511	508	0	367	40	17	
12	0	0	0	0	511	508	3	288	40	17	
13	0	0	0	0	512	508	0	278	40	17	
14	0	0	0	0	505	508	1	232	40	17	
15	0	0	0	0	499	510	0	149	40	17	
0	0	0	0	0	496	511	1	70	40	17	
1	0	0	0	0	487	511	0	15	40	17	
2	0	0	0	0	484	510	2	0	40	17	
3	0	0	0	0	485	510	2	0	40	17	
4	0	0	0	0	496	510	3	0	40	17	
5	0	0	0	0	515	512	2	0	40	17	
6	0	0	0	0	533	513	2	190	40	17	
7	0	0	0	0	541	515	2	363	40	17	
8	0	0	0	0	540	514	1	494	40	17	
9	0	0	0	0	535	514	3	631	40	17	
10	0	0	0	0	530	512	3	794	40	17	
11	0	0	0	0	526	510	2	861	40	17	
12	0	0	0	0	515	509	3	846	40	17	
13	0	0	0	0	518	508	2	817	40	17	
14	0	0	0	0	518	509	3	782	40	17	
15	0	0	0	0	509	508	2	688	40	17	
0	0	0	0	0	503	508	1	586	40	17	
1	0	0	0	0	494	510	2	495	40	17	
2	0	0	0	0	483	510	0	403	40	17	
3	0	0	0	0	478	512	1	314	40	17	
4	0	0	0	0	478	510	3	235	40	17	
5	0	0	0	0	497	511	1	231	40	17	
6	0	0	0	0	516	511	1	305	40	17	
7	0	0	0	0	535	512	0	417	40	17	
8	0	0	0	0	544	511	3	529	40	17	
9	0	0	0	0	543	510	1	665	40	17	
10	0	0	0	0	535	510	1	749	40	17	
11	0	0	0	0	526	510	0	752	40	17	
12	0	0	0	0	520	510	2	694	40	17	
13	0	0	0	0	515	510	1	632	40	17	
14	0	0	0	0	513	510	1	576	40	17	
15	0	0	0	0	514	512	0	574	40	17	
0	0	0	0	0	506	511	1	568	40	17	
1	0	0	0	0	498	511	0	523	40	17	
2	0	0	0	0	490	511	0	439	40	17	
3	0	0	0	0	486	510	0	341	40	17	
4	0	0	0	0	480	509	3	280	40	17	
5	0	0	0	0	484	508	0	237	40	17	
6	0	0	0	0	503	506	2	281	40	17	
7	0	0	0	0	526	507	2	356	40	17	
8	0	0	0	0	543	508	1	469	40	17	
9	0	0	0	0	543	510	3	602	40	17	
10	0	0	0	0	540	509	2	717	40	17	
11	0	0	0	0	536	511	2	753	40	17	
12	0	0	0	0	527	510	3	711	40	17	
13	0	0	0	0	515	509	3	670	40	17	
14	0	0	0	0	515	509	2	618	40	17	
15	0	0	0	0	513	510	1	606	40	17	
0	0	0	0	0	514	511	1	603	40	17	
1	0	0	0	0	505	510	1	592	40	17	
2	0	0	0	0	496	510	1	579	40	17	
3	0	0	0	0	484	511	0	511	40	17	
4	0	0	0	0	480	511	2	402	40	17	
5	0	0	0	0	480	509	0	316	40	17	
6	0	0	0	0	490	511	0	251	40	17	
7	0	0	0	0	512	511	2	248	40	17	
8	0	0	0	0	528	509	3	364	40	17	
9	0	0	0	0	539	508	2	557	40	17	
10	0	0	0	0	540	509	2	716	40	17	
11	0	0	0	0	537	510	2	758	40	17	
12	0	0	0	0	531	510	3	762	40	17	
13	0	0	0	0	522	508	3	804	40	17	
14	0	0	0	0	510	509	2	805	40	17	
15	0	0	0	0	513	510	1	749	40	17	
0	0	0	0	0	513	508	2	666	40	17	
1	0	0	0	0	506	508	1	607	40	17	
2	0	0	0	0	499	509	1	580	40	17	
3	0	0	0	0	490	509	0	526	40	17	
4	0	0	0	0	478	508	1	428	40	17	
5	0	0	0	0	477	508	1	324	40	17	
6	0	0	0	0	477	509	2	235	40	17	
7	0	0	0	0	493	509	2	192	40	17	
8	0	0	0	0	513	510	3	277	40	17	
9	0	0	0	0	528	511	0	455	40	17	
10	0	0	0	0	537	511	3	627	40	17	
11	0	0	0	0	544	511	2	712	40	17	
12	0	0	0	0	537	510	3	767	40	17	
13	0	0	0	0	528	508	2	824	40	17	
14	0	0	0	0	520	510	2	835	40	17	
15	0	0	0	0	515	510	2	779	40	17	
0	0	0	0	0	519	512	3	723	40	17	
1	0	0	0	0	517	511	1	745	40	17	
2	0	0	0	0	508	510	1	741	40	17	
3	0	0	0	0	502	511	0	714	40	17	
4	0	0	0	0	490	509	1	644	40	17	
5	0	0	0	0	485	509	1	568	40	17	
6	0	0	0	0	486	510	3	468	40	17	
7	0	0	0	0	491	509	2	385	40	17	
8	0	0	0	0	516	511	3	430	40	17	
9	0	0	0	0	535	511	2	595	40	17	
10	0	0	0	0	551	512	3	786	40	17	
11	0	0	0	0	561	513	3	882	40	17	
12	0	0	0	0	557	510	3	888	40	17	
13	0	0	0	0	552	510	3	841	40	17	
14	0	0	0	0	540	510	1	748	40	17	
15	0	0	0	0	524	509	1	607	40	17	
0	0	0	0	0	521	509	1	454	40	17	
1	0	0	0	0	518	510	1	323	40	17	
2	0	0	0	0	516	512	0	198	40	17	
3	0	0	0	0	512	512	0	81	40	17	
4	0	0	0	0	504	512	3	18	40	17	
5	0	0	0	0	490	511	1	3	40	17	
6	0	0	0	0	485	513	2	0	40	17	
7	0	0	0	0	478	513	2	0	40	17	
8	0	0	0	0	489	510	2	0	40	17	
9	0	0	0	0	503	510	2	0	40	17	
10	0	0	0	0	518	511	2	97	40	17	
11	0	0	0	0	531	511	2	187	40	17	
12	0	0	0	0	536	512	3	312	40	17	
13	0	0	0	0	530	512	3	474	40	17	
14	0	0	0	0	517	511	2	589	40	17	
15	0	0	0	0	513	511	1	584	40	17	
0	0	0	0	0	501	511	3	575	40	17	
1	0	0	0	0	505	513	1	578	40	17	
2	0	0	0	0	508	514	1	607	40	17	
3	0	0	0	0	505	512	0	572	40	17	
4	0	0	0	0	501	511	3	501	40	17	
5	0	0	0	0	487	510	0	437	40	17	
6	0	0	0	0	480	511	1	341	40	17	
7	0	0	0	0	477	511	0	220	40	17	
8	0	0	0	0	479	510	3	122	40	17	
9	0	0	0	0	496	509	3	97	40	17	
10	0	0	0	0	516	508	2	121	40	17	
11	0	0	0	0	532	511	2	176	40	17	
12	0	0	0	0	542	511	3	301	40	17	
13	0	0	0	0	540	510	3	401	40	17	
14	0	0	0	0	536	511	2	489	40	17	
15	0	0	0	0	527	510	1	495	40	17	
0	0	0	0	0	515	508	3	449	40	17	
1	0	0	0	0	509	508	1	403	40	17	
2	0	0	0	0	513	509	1	375	40	17	
3	0	0	0	0	514	508	0	333	40	17	
4	0	0	0	0	505	508	3	303	40	17	
5	0	0	0	0	498	509	1	293	40	17	
6	0	0	0	0	494	510	0	298	40	17	
7	0	0	0	0	485	511	1	248	40	17	
8	0	0	0	0	486	510	3	199	40	17	
9	0	0	0	0	487	508	1	166	40	17	
10	0	0	0	0	505	508	2	208	40	17	
11	0	0	0	0	524	511	2	240	40	17	
12	0	0	0	0	536	509	2	281	40	17	
13	0	0	0	0	542	509	2	331	40	17	
14	0	0	0	0	542	512	2	415	40	17	
15	0	0	0	0	536	511	2	440	40	17	
0	0	0	0	0	527	511	2	433	40	17	
1	0	0	0	0	514	510	2	425	40	17	
2	0	0	0	0	514	510	1	407	40	17	
3	0	0	0	0	516	511	1	399	40	17	
4	0	0	0	0	516	510	1	377	40	17	
5	0	0	0	0	506	512	1	326	40	17	
6	0	0	0	0	497	512	0	275	40	17	
7	0	0	0	0	487	511	0	210	40	17	
8	0	0	0	0	481	509	1	155	40	17	
9	0	0	0	0	478	509	0	110	40	17	
10	0	0	0	0	494	511	3	88	40	17	
11	0	0	0	0	516	511	2	151	40	17	
12	0	0	0	0	534	510	1	349	40	17	
13	0	0	0	0	540	510	2	582	40	17	
14	0	0	0	0	543	511	2	771	40	17	
15	0	0	0	0	541	511	3	841	40	17	
0	0	0	0	0	536	511	3	847	40	17	
1	0	0	0	0	524	509	3	842	40	17	
2	0	0	0	0	510	508	3	836	40	17	
3	0	0	0	0	512	510	2	816	40	17	
4	0	0	0	0	515	511	3	779	40	17	
5	0	0	0	0	510	512	3	765	40	17	
6	0	0	0	0	502	513	3	723	40	17	
7	0	0	0	0	495	514	2	643	40	17	
8	0	0	0	0	488	516	2	538	40	17	
9	0	0	0	0	485	514	3	449	40	17	
10	0	0	0	0	480	513	2	361	40	17	
11	0	0	0	0	498	512	2	328	40	17	
12	0	0	0	0	518	512	2	438	40	17	
13	0	0	0	0	531	511	2	654	40	17	
14	0	0	0	0	542	511	2	856	40	17	
15	0	0	0	0	544	511	1	926	40	17	
0	0	0	0	0	538	512	2	926	40	17	
1	0	0	0	0	528	511	2	920	40	17	
2	0	0	0	0	517	511	1	901	40	17	
3	0	0	0	0	513	511	1	826	40	17	
4	0	0	0	0	515	512	3	777	40	17	
5	0	0	0	0	515	513	1	797	40	17	
6	0	0	0	0	505	511	0	788	40	17	
7	0	0	0	0	497	512	0	725	40	17	
8	0	0	0	0	490	513	3	636	40	17	
9	0	0	0	0	484	514	1	562	40	17	
10	0	0	0	0	482	513	3	498	40	17	
11	0	0	0	0	484	511	2	448	40	17	
12	0	0	0	0	504	513	3	477	40	17	
13	0	0	0	0	523	510	3	605	40	17	
14	0	0	0	0	537	510	1	700	40	17	
15	0	0	0	0	544	510	1	742	40	17	
0	0	0	0	0	541	510	3	728	40	17	
1	0	0	0	0	534	511	1	721	40	17	
2	0	0	0	0	528	510	0	697	40	17	
3	0	0	0	0	514	510	0	616	40	17	
4	0	0	0	0	511	509	3	545	40	17	
5	0	0	0	0	516	509	0	473	40	17	
6	0	0	0	0	515	510	0	380	40	17	
7	0	0	0	0	506	510	0	287	40	17	
8	0	0	0	0	496	509	3	213	40	17	
9	0	0	0	0	484	508	0	150	40	17	
10	0	0	0	0	480	507	1	86	40	17	
11	0	0	0	0	482	508	0	19	40	17	
12	0	0	0	0	497	509	3	0	40	17	
13	0	0	0	0	514	510	1	97	40	17	
14	0	0	0	0	527	510	3	275	40	17	
15	0	0	0	0	537	512	2	389	40	17	
0	0	0	0	0	540	510	3	488	40	17	
1	0	0	0	0	541	509	2	567	40	17	
2	0	0	0	0	534	509	3	629	40	17	
3	0	0	0	0	524	510	2	610	40	17	
4	0	0	0	0	512	510	3	527	40	17	
5	0	0	0	0	514	510	3	489	40	17	
6	0	0	0	0	516	510	2	482	40	17	
7	0	0	0	0	509	513	2	428	40	17	
8	0	0	0	0	501	511	3	380	40	17	
9	0	0	0	0	490	509	2	322	40	17	
10	0	0	0	0	482	509	2	235	40	17	
11	0	0	0	0	479	510	2	153	40	17	
12	0	0	0	0	478	510	3	79	40	17	
13	0	0	0	0	499	511	2	90	40	17	
14	0	0	0	0	521	512	2	226	40	17	
15	0	0	0	0	530	512	2	405	40	17	
0	0	0	0	0	532	512	2	643	40	17	
1	0	0	0	0	541	512	3	861	40	17	
2	0	0	0	0	538	511	2	940	40	17	
3	0	0	0	0	529	510	2	972	40	17	
4	0	0	0	0	520	510	3	944	40	17	
5	0	0	0	0	513	509	2	885	40	17	
6	0	0	0	0	515	508	3	811	40	17	
7	0	0	0	0	513	509	2	724	40	17	
8	0	0	0	0	510	509	2	609	40	17	
9	0	0	0	0	497	508	1	536	40	17	
10	0	0	0	0	489	510	1	454	40	17	
11	0	0	0	0	486	511	0	373	40	17	
12	0	0	0	0	481	509	2	319	40	17	
13	0	0	0	0	483	510	1	291	40	17	
14	0	0	0	0	504	511	0	300	40	17	
15	0	0	0	0	523	511	0	327	40	17	
0	0	0	0	0	538	510	2	394	40	17	
1	0	0	0	0	545	511	2	528	40	17	
2	0	0	0	0	542	510	2	612	40	17	
3	0	0	0	0	533	511	2	653	40	17	
4	0	0	0	0	524	512	3	648	40	17	
5	0	0	0	0	514	511	3	691	40	17	
6	0	0	0	0	513	510	1	665	40	17	
7	0	0	0	0	511	509	1	592	40	17	
8	0	0	0	0	511	509	3	571	40	17	
9	0	0	0	0	507	510	1	579	40	17	
10	0	0	0	0	497	510	0	580	40	17	
11	0	0	0	0	487	510	0	522	40	17	
12	0	0	0	0	483	508	3	430	40	17	
13	0	0	0	0	478	508	2	395	40	17	
14	0	0	0	0	496	511	2	371	40	17	
15	0	0	0	0	513	512	2	383	40	17	
0	0	0	0	0	523	512	3	524	40	17	
1	0	0	0	0	539	511	2	735	40	17	
2	0	0	0	0	546	511	2	902	40	17	
3	0	0	0	0	541	511	3	932	40	17	
4	0	0	0	0	534	512	3	922	40	17	
5	0	0	0	0	522	510	3	947	40	17	
6	0	0	0	0	513	510	1	899	40	17	
7	0	0	0	0	513	509	0	824	40	17	
8	0	0	0	0	513	508	3	748	40	17	
9	0	0	0	0	508	508	1	706	40	17	
10	0	0	0	0	500	511	0	692	40	17	
11	0	0	0	0	490	511	0	653	40	17	
12	0	0	0	0	488	510	3	578	40	17	
13	0	0	0	0	483	509	0	503	40	17	
14	0	0	0	0	483	511	1	450	40	17	
15	0	0	0	0	501	512	3	442	40	17	
0	0	0	0	0	520	513	3	509	40	17	
1	0	0	0	0	535	511	2	653	40	17	
2	0	0	0	0	541	512	3	796	40	17	
3	0	0	0	0	541	513	2	852	40	17	
4	0	0	0	0	536	515	4	893	40	17	
5	0	0	0	0	524	513	2	917	40	17	
6	0	0	0	0	521	515	2	856	40	17	
7	0	0	0	0	510	515	2	756	40	17	
8	0	0	0	0	512	514	3	696	40	17	
9	0	0	0	0	509	513	3	723	40	17	
10	0	0	0	0	503	513	2	716	40	17	
11	0	0	0	0	498	513	0	664	40	17	
12	0	0	0	0	495	514	2	581	40	17	
13	0	0	0	0	487	512	1	541	40	17	
14	0	0	0	0	481	513	1	520	40	17	
15	0	0	0	0	483	511	0	502	40	17	
0	0	0	0	0	506	512	2	537	40	17	
1	0	0	0	0	527	513	0	624	40	17	
2	0	0	0	0	540	513	1	758	40	17	
3	0	0	0	0	545	511	1	843	40	17	
4	0	0	0	0	543	508	1	905	40	17	
5	0	0	0	0	537	508	0	911	40	17	
6	0	0	0	0	524	509	3	869	40	17	
7	0	0	0	0	512	510	2	777	40	17	
8	0	0	0	0	511	509	3	703	40	17	
9	0	0	0	0	512	508	2	668	40	17	
10	0	0	0	0	514	510	2	635	40	17	
11	0	0	0	0	510	509	2	544	40	17	
12	0	0	0	0	498	508	3	409	40	17	
13	0	0	0	0	487	506	3	305	40	17	
14	0	0	0	0	480	509	1	198	40	17	
15	0	0	0	0	478	510	1	99	40	17	
0	0	0	0	0	488	510	2	63	40	17	
1	0	0	0	0	509	509	1	131	40	17	
2	0	0	0	0	533	511	0	248	40	17	
3	0	0	0	0	539	510	0	316	40	17	
4	0	0	0	0	540	511	3	358	40	17	
5	0	0	0	0	539	511	0	384	40	17	
6	0	0	0	0	535	512	1	416	40	17	
7	0	0	0	0	523	513	1	398	40	17	
8	0	0	0	0	515	512	3	355	40	17	
9	0	0	0	0	515	510	3	309	40	17	
10	0	0	0	0	514	509	2	278	40	17	
11	0	0	0	0	508	510	2	224	40	17	
12	0	0	0	0	501	508	2	160	40	17	
13	0	0	0	0	491	507	2	73	40	17	
14	0	0	0	0	487	508	3	0	40	17	
15	0	0	0	0	482	511	2	0	40	17	
0	0	0	0	0	480	510	1	0	40	17	
1	0	0	0	0	500	509	1	0	40	17	
2	0	0	0	0	518	509	1	0	40	17	
3	0	0	0	0	534	508	0	221	40	17	
4	0	0	0	0	544	509	3	418	40	17	
5	0	0	0	0	549	507	0	659	40	17	
6	0	0	0	0	535	508	0	846	40	17	
7	0	0	0	0	524	509	2	920	40	17	
8	0	0	0	0	519	508	3	918	40	17	
9	0	0	0	0	513	507	3	880	40	17	
10	0	0	0	0	515	507	3	805	40	17	
11	0	0	0	0	512	506	3	728	40	17	
12	0	0	0	0	507	508	3	663	40	17	
13	0	0	0	0	499	508	2	581	40	17	
14	0	0	0	0	489	508	1	478	40	17	
15	0	0	0	0	483	510	0	368	40	17	
0	0	0	0	0	483	508	2	317	40	17	
1	0	0	0	0	486	507	0	284	40	17	
2	0	0	0	0	508	508	0	299	40	17	
3	0	0	0	0	526	509	2	379	40	17	
4	0	0	0	0	540	509	1	541	40	17	
5	0	0	0	0	548	508	2	722	40	17	
6	0	0	0	0	542	509	3	896	40	17	
7	0	0	0	0	534	511	2	1016	40	17	
8	0	0	0	0	525	512	3	1018	40	17	
9	0	0	0	0	512	511	3	975	40	17	
10	0	0	0	0	519	510	2	863	40	17	
11	0	0	0	0	515	511	1	755	40	17	
12	0	0	0	0	510	509	3	691	40	17	
13	0	0	0	0	503	508	1	638	40	17	
14	0	0	0	0	494	509	1	574	40	17	
15	0	0	0	0	484	511	0	502	40	17	
0	0	0	0	0	480	511	3	412	40	17	
1	0	0	0	0	481	509	0	356	40	17	
2	0	0	0	0	491	509	0	319	40	17	
3	0	0	0	0	511	512	0	315	40	17	
4	0	0	0	0	536	512	2	400	40	17	
5	0	0	0	0	543	511	0	519	40	17	
6	0	0	0	0	544	511	0	626	40	17	
7	0	0	0	0	541	512	2	684	40	17	
8	0	0	0	0	530	510	1	726	40	17	
9	0	0	0	0	518	511	3	757	40	17	
10	0	0	0	0	513	508	3	757	40	17	
11	0	0	0	0	518	510	2	772	40	17	
12	0	0	0	0	519	510	3	776	40	17	
13	0	0	0	0	508	510	3	769	40	17	
14	0	0	0	0	500	511	1	709	40	17	
15	0	0	0	0	494	511	1	630	40	17	
0	0	0	0	0	489	510	1	517	40	17	
1	0	0	0	0	485	510	0	409	40	17	
2	0	0	0	0	481	511	0	308	40	17	
3	0	0	0	0	499	510	0	280	40	17	
4	0	0	0	0	520	510	3	331	40	17	
5	0	0	0	0	534	510	0	492	40	17	
6	0	0	0	0	542	512	3	660	40	17	
7	0	0	0	0	545	513	2	792	40	17	
8	0	0	0	0	538	513	4	919	40	17	
9	0	0	0	0	526	511	2	1016	40	17	
10	0	0	0	0	519	511	2	1018	40	17	
11	0	0	0	0	513	510	2	1017	40	17	
12	0	0	0	0	515	509	3	918	40	17	
13	0	0	0	0	511	507	3	949	40	17	
14	0	0	0	0	507	508	1	941	40	17	
15	0	0	0	0	502	510	0	865	40	17	
0	0	0	0	0	491	509	1	758	40	17	
1	0	0	0	0	481	508	0	646	40	17	
2	0	0	0	0	481	509	1	532	40	17	
3	0	0	0	0	485	509	0	436	40	17	
4	0	0	0	0	507	508	1	438	40	17	
5	0	0	0	0	527	506	3	536	40	17	
6	0	0	0	0	539	505	3	672	40	17	
7	0	0	0	0	542	506	2	768	40	17	
8	0	0	0	0	546	505	2	825	40	17	
9	0	0	0	0	537	505	2	814	40	17	
10	0	0	0	0	525	507	3	757	40	17	
11	0	0	0	0	513	508	1	630	40	17	
12	0	0	0	0	516	508	2	531	40	17	
13	0	0	0	0	515	508	1	498	40	17	
14	0	0	0	0	514	508	0	451	40	17	
15	0	0	0	0	507	510	0	396	40	17	
0	0	0	0	0	496	511	3	328	40	17	
1	0	0	0	0	483	508	0	339	40	17	
2	0	0	0	0	478	507	0	354	40	17	
3	0	0	0	0	481	508	2	346	40	17	
4	0	0	0	0	492	507	1	354	40	17	
5	0	0	0	0	514	509	3	435	40	17	
6	0	0	0	0	530	508	3	619	40	17	
7	0	0	0	0	538	507	2	775	40	17	
8	0	0	0	0	542	509	2	956	40	17	
9	0	0	0	0	543	508	3	1018	40	17	
10	0	0	0	0	526	508	2	1018	40	17	
11	0	0	0	0	517	507	1	1018	40	17	
12	0	0	0	0	510	508	3	1017	40	17	
13	0	0	0	0	519	507	0	1018	40	17	
14	0	0	0	0	510	507	1	1018	40	17	
15	0	0	0	0	503	506	0	1017	40	17	
0	0	0	0	0	502	507	3	776	40	17	
1	0	0	0	0	495	508	1	591	40	17	
2	0	0	0	0	487	510	0	404	40	17	
3	0	0	0	0	479	511	0	249	40	17	
4	0	0	0	0	480	512	3	109	40	17	
5	0	0	0	0	505	512	1	77	40	17	
6	0	0	0	0	521	512	2	175	40	17	
7	0	0	0	0	537	511	2	312	40	17	
8	0	0	0	0	543	511	1	456	40	17	
9	0	0	0	0	545	512	1	619	40	17	
10	0	0	0	0	534	512	3	713	40	17	
11	0	0	0	0	529	511	0	739	40	17	
12	0	0	0	0	519	509	1	701	40	17	
13	0	0	0	0	508	512	1	652	40	17	
14	0	0	0	0	511	512	3	586	40	17	
15	0	0	0	0	511	511	2	530	40	17	
0	0	0	0	0	503	511	3	491	40	17	
1	0	0	0	0	495	508	2	458	40	17	
2	0	0	0	0	487	509	2	376	40	17	
3	0	0	0	0	480	511	2	274	40	17	
4	0	0	0	0	481	510	3	209	40	17	
5	0	0	0	0	484	508	3	174	40	17	
6	0	0	0	0	507	508	2	167	40	17	
7	0	0	0	0	523	508	2	184	40	17	
8	0	0	0	0	541	508	3	258	40	17	
9	0	0	0	0	547	507	3	467	40	17	
10	0	0	0	0	544	508	2	635	40	17	
11	0	0	0	0	536	510	1	718	40	17	
12	0	0	0	0	525	511	2	685	40	17	
13	0	0	0	0	515	509	1	646	40	17	
14	0	0	0	0	511	508	1	604	40	17	
15	0	0	0	0	516	507	1	583	40	17	
0	0	0	0	0	511	508	2	575	40	17	
1	0	0	0	0	504	511	1	545	40	17	
2	0	0	0	0	495	510	1	488	40	17	
3	0	0	0	0	486	511	0	390	40	17	
4	0	0	0	0	478	511	3	287	40	17	
5	0	0	0	0	474	511	1	187	40	17	
6	0	0	0	0	492	512	0	105	40	17	
7	0	0	0	0	514	513	0	98	40	17	
8	0	0	0	0	525	510	3	215	40	17	
9	0	0	0	0	538	509	0	369	40	17	
10	0	0	0	0	547	512	1	547	40	17	
11	0	0	0	0	544	514	1	612	40	17	
12	0	0	0	0	534	512	4	631	40	17	
13	0	0	0	0	523	510	0	668	40	17	
14	0	0	0	0	516	511	1	629	40	17	
15	0	0	0	0	516	511	1	524	40	17	
0	0	0	0	0	515	510	3	443	40	17	
1	0	0	0	0	509	508	1	390	40	17	
2	0	0	0	0	503	509	1	305	40	17	
3	0	0	0	0	494	509	2	195	40	17	
4	0	0	0	0	482	508	3	70	40	17	
5	0	0	0	0	475	510	1	0	40	17	
6	0	0	0	0	479	511	2	0	40	17	
7	0	0	0	0	498	511	2	0	40	17	
8	0	0	0	0	518	513	3	0	40	17	
9	0	0	0	0	539	510	3	161	40	17	
10	0	0	0	0	542	510	2	408	40	17	
11	0	0	0	0	540	511	2	564	40	17	
12	0	0	0	0	532	510	1	632	40	17	
13	0	0	0	0	525	508	3	594	40	17	
14	0	0	0	0	513	508	3	488	40	17	
15	0	0	0	0	511	509	2	365	40	17	
0	0	0	0	0	516	510	1	320	40	17	
1	0	0	0	0	517	511	2	324	40	17	
2	0	0	0	0	506	511	2	314	40	17	
3	0	0	0	0	504	512	2	260	40	17	
4	0	0	0	0	488	511	2	224	40	17	
5	0	0	0	0	482	511	3	200	40	17	
6	0	0	0	0	479	513	2	163	40	17	
7	0	0	0	0	489	513	2	123	40	17	
8	0	0	0	0	510	513	3	136	40	17	
9	0	0	0	0	526	512	2	188	40	17	
10	0	0	0	0	541	514	2	261	40	17	
11	0	0	0	0	543	513	2	301	40	17	
12	0	0	0	0	543	514	3	318	40	17	
13	0	0	0	0	536	512	2	359	40	17	
14	0	0	0	0	527	512	2	370	40	17	
15	0	0	0	0	513	512	2	342	40	17	
0	0	0	0	0	515	511	1	321	40	17	
1	0	0	0	0	513	510	2	321	40	17	
2	0	0	0	0	507	508	3	319	40	17	
3	0	0	0	0	505	509	2	267	40	17	
4	0	0	0	0	491	509	3	224	40	17	
5	0	0	0	0	483	507	2	178	40	17	
6	0	0	0	0	480	508	3	121	40	17	
7	0	0	0	0	478	510	2	49	40	17	
8	0	0	0	0	489	509	3	23	40	17	
9	0	0	0	0	514	509	2	117	40	17	
10	0	0	0	0	528	508	3	344	40	17	
11	0	0	0	0	539	509	2	555	40	17	
12	0	0	0	0	544	507	3	683	40	17	
13	0	0	0	0	541	506	2	733	40	17	
14	0	0	0	0	531	507	3	733	40	17	
15	0	0	0	0	522	508	2	709	40	17	
0	0	0	0	0	514	507	2	623	40	17	
1	0	0	0	0	517	507	2	564	40	17	
2	0	0	0	0	518	507	2	533	40	17	
3	0	0	0	0	510	509	3	510	40	17	
4	0	0	0	0	500	507	1	515	40	17	
5	0	0	0	0	493	507	2	518	40	17	
6	0	0	0	0	483	511	2	494	40	17	
7	0	0	0	0	477	512	2	420	40	17	
8	0	0	0	0	482	512	3	331	40	17	
9	0	0	0	0	502	510	3	358	40	17	
10	0	0	0	0	519	512	2	465	40	17	
11	0	0	0	0	539	515	0	586	40	17	
12	0	0	0	0	542	514	1	669	40	17	
13	0	0	0	0	543	514	1	744	40	17	
14	0	0	0	0	540	513	1	804	40	17	
15	0	0	0	0	531	513	0	813	40	17	
0	0	0	0	0	519	512	2	775	40	17	
1	0	0	0	0	518	508	0	732	40	17	
2	0	0	0	0	520	508	1	732	40	17	
3	0	0	0	0	514	509	2	758	40	17	
4	0	0	0	0	504	509	1	765	40	17	
5	0	0	0	0	495	510	2	736	40	17	
6	0	0	0	0	485	510	3	659	40	17	
7	0	0	0	0	482	510	2	537	40	17	
8	0	0	0	0	480	508	2	425	40	17	
9	0	0	0	0	484	509	3	352	40	17	
10	0	0	0	0	507	510	2	395	40	17	
11	0	0	0	0	525	510	2	477	40	17	
12	0	0	0	0	536	509	3	563	40	17	
13	0	0	0	0	540	508	3	758	40	17	
14	0	0	0	0	537	510	3	960	40	17	
15	0	0	0	0	534	510	2	1018	40	17	
0	0	0	0	0	527	508	3	1019	40	17	
1	0	0	0	0	517	509	3	1018	40	17	
2	0	0	0	0	519	509	3	1018	40	17	
3	0	0	0	0	514	507	3	916	40	17	
4	0	0	0	0	510	509	2	815	40	17	
5	0	0	0	0	504	508	3	738	40	17	
6	0	0	0	0	496	511	2	678	40	17	
7	0	0	0	0	486	511	1	591	40	17	
8	0	0	0	0	480	508	3	516	40	17	
9	0	0	0	0	479	509	1	436	40	17	
10	0	0	0	0	497	511	0	354	40	17	
11	0	0	0	0	519	511	0	298	40	17	
12	0	0	0	0	534	512	3	364	40	17	
13	0	0	0	0	543	511	1	465	40	17	
14	0	0	0	0	542	510	3	561	40	17	
15	0	0	0	0	539	510	2	570	40	17	
0	0	0	0	0	531	510	3	562	40	17	
1	0	0	0	0	519	508	2	538	40	17	
2	0	0	0	0	511	509	2	452	40	17	
3	0	0	0	0	509	509	2	349	40	17	
4	0	0	0	0	513	508	1	293	40	17	
5	0	0	0	0	507	509	3	270	40	17	
6	0	0	0	0	500	508	2	238	40	17	
7	0	0	0	0	493	508	2	183	40	17	
8	0	0	0	0	487	506	1	107	40	17	
9	0	0	0	0	483	507	2	31	40	17	
10	0	0	0	0	483	508	1	0	40	17	
11	0	0	0	0	500	508	1	0	40	17	
12	0	0	0	0	520	510	1	0	40	17	
13	0	0	0	0	533	510	1	192	40	17	
14	0	0	0	0	542	509	0	332	40	17	
15	0	0	0	0	544	510	0	399	40	17	
0	0	0	0	0	541	509	3	444	40	17	
1	0	0	0	0	527	508	0	434	40	17	
2	0	0	0	0	517	509	0	420	40	17	
3	0	0	0	0	513	510	0	383	40	17	
4	0	0	0	0	516	508	1	402	40	17	
5	0	0	0	0	511	507	2	457	40	17	
6	0	0	0	0	502	509	2	494	40	17	
7	0	0	0	0	499	509	2	456	40	17	
8	0	0	0	0	489	509	3	373	40	17	
9	0	0	0	0	481	508	2	339	40	17	
10	0	0	0	0	479	510	2	307	40	17	
11	0	0	0	0	484	509	3	263	40	17	
12	0	0	0	0	508	509	3	265	40	17	
13	0	0	0	0	526	509	3	378	40	17	
14	0	0	0	0	540	510	2	595	40	17	
15	0	0	0	0	541	510	1	775	40	17	
0	0	0	0	0	545	513	2	904	40	17	
1	0	0	0	0	537	511	0	998	40	17	
2	0	0	0	0	528	510	0	1011	40	17	
3	0	0	0	0	519	511	0	926	40	17	
4	0	0	0	0	515	511	3	834	40	17	
5	0	0	0	0	513	509	1	791	40	17	
6	0	0	0	0	510	510	2	799	40	17	
7	0	0	0	0	505	509	2	764	40	17	
8	0	0	0	0	497	508	4	683	40	17	
9	0	0	0	0	482	507	2	639	40	17	
10	0	0	0	0	479	509	3	592	40	17	
11	0	0	0	0	479	510	1	536	40	17	
12	0	0	0	0	492	510	3	494	40	17	
13	0	0	0	0	513	511	1	572	40	17	
14	0	0	0	0	532	513	1	767	40	17	
15	0	0	0	0	539	513	0	955	40	17	
0	0	0	0	0	541	512	1	1017	40	17	
1	0	0	0	0	539	512	3	1018	40	17	
2	0	0	0	0	532	512	3	1018	40	17	
3	0	0	0	0	522	510	2	1018	40	17	
4	0	0	0	0	511	509	3	1017	40	17	
5	0	0	0	0	516	510	2	1018	40	17	
6	0	0	0	0	515	510	2	1018	40	17	
7	0	0	0	0	511	510	1	854	40	17	
8	0	0	0	0	504	508	3	703	40	17	
9	0	0	0	0	497	506	0	570	40	17	
10	0	0	0	0	485	507	0	433	40	17	
11	0	0	0	0	477	508	2	308	40	17	
12	0	0	0	0	478	507	2	212	40	17	
13	0	0	0	0	497	507	2	219	40	17	
14	0	0	0	0	519	508	3	312	40	17	
15	0	0	0	0	534	510	2	424	40	17	
0	0	0	0	0	540	509	3	529	40	17	
1	0	0	0	0	540	508	2	668	40	17	
2	0	0	0	0	542	510	1	849	40	17	
3	0	0	0	0	531	510	0	929	40	17	
4	0	0	0	0	519	510	3	947	40	17	
5	0	0	0	0	512	509	0	932	40	17	
6	0	0	0	0	512	513	3	895	40	17	
7	0	0	0	0	516	513	2	851	40	17	
8	0	0	0	0	514	512	3	799	40	17	
9	0	0	0	0	504	510	2	743	40	17	
10	0	0	0	0	492	509	3	630	40	17	
11	0	0	0	0	481	508	2	491	40	17	
12	0	0	0	0	479	508	2	384	40	17	
13	0	0	0	0	483	509	2	333	40	17	
14	0	0	0	0	504	511	1	395	40	17	
15	0	0	0	0	519	512	1	507	40	17	
0	0	0	0	0	534	513	3	668	40	17	
1	0	0	0	0	538	513	1	897	40	17	
2	0	0	0	0	541	515	0	1018	40	17	
3	0	0	0	0	536	515	0	1018	40	17	
4	0	0	0	0	527	515	1	1018	40	17	
5	0	0	0	0	514	514	0	1018	40	17	
6	0	0	0	0	513	514	0	1018	40	17	
7	0	0	0	0	515	511	0	891	40	17	
8	0	0	0	0	507	510	2	792	40	17	
9	0	0	0	0	501	511	0	709	40	17	
10	0	0	0	0	496	510	1	594	40	17	
11	0	0	0	0	484	509	0	464	40	17	
12	0	0	0	0	481	510	3	347	40	17	
13	0	0	0	0	480	510	1	264	40	17	
14	0	0	0	0	496	511	2	206	40	17	
15	0	0	0	0	516	513	2	204	40	17	
0	0	0	0	0	530	511	2	307	40	17	
1	0	0	0	0	541	510	2	428	40	17	
2	0	0	0	0	545	511	2	553	40	17	
3	0	0	0	0	540	510	2	603	40	17	
4	0	0	0	0	532	508	3	601	40	17	
5	0	0	0	0	521	510	3	595	40	17	
6	0	0	0	0	515	510	2	528	40	17	
7	0	0	0	0	512	512	1	419	40	17	
8	0	0	0	0	512	511	2	328	40	17	
9	0	0	0	0	508	513	1	286	40	17	
10	0	0	0	0	497	511	0	226	40	17	
11	0	0	0	0	492	510	0	150	40	17	
12	0	0	0	0	484	509	3	66	40	17	
13	0	0	0	0	481	509	0	0	40	17	
14	0	0	0	0	482	509	0	0	40	17	
15	0	0	0	0	502	509	0	0	40	17	
0	0	0	0	0	525	509	2	0	40	17	
1	0	0	0	0	540	510	1	271	40	17	
2	0	0	0	0	542	510	3	439	40	17	
3	0	0	0	0	542	509	2	493	40	17	
4	0	0	0	0	536	508	2	480	40	17	
5	0	0	0	0	531	511	2	408	40	17	
6	0	0	0	0	522	510	2	293	40	17	
7	0	0	0	0	518	510	2	167	40	17	
8	0	0	0	0	515	510	1	73	40	17	
9	0	0	0	0	509	510	2	28	40	17	
10	0	0	0	0	503	511	3	0	40	17	
11	0	0	0	0	499	511	2	0	40	17	
12	0	0	0	0	492	510	2	0	40	17	
13	0	0	0	0	480	510	3	0	40	17	
14	0	0	0	0	476	508	3	0	40	17	
15	0	0	0	0	484	511	2	0	40	17	
0	0	0	0	0	512	509	2	0	40	17	
1	0	0	0	0	527	509	3	0	40	17	
2	0	0	0	0	544	511	3	204	40	17	
3	0	0	0	0	545	511	2	411	40	17	
4	0	0	0	0	541	511	3	583	40	17	
5	0	0	0	0	534	512	3	657	40	17	
6	0	0	0	0	525	512	3	633	40	17	
7	0	0	0	0	512	512	2	566	40	17	
8	0	0	0	0	512	512	2	515	40	17	
9	0	0	0	0	510	512	3	500	40	17	
10	0	0	0	0	507	512	2	485	40	17	
11	0	0	0	0	504	510	2	430	40	17	
12	0	0	0	0	495	510	3	328	40	17	
13	0	0	0	0	488	511	3	258	40	17	
14	0	0	0	0	480	510	2	159	40	17	
15	0	0	0	0	478	511	0	97	40	17	
0	0	0	0	0	494	510	2	81	40	17	
1	0	0	0	0	514	510	1	169	40	17	
2	0	0	0	0	529	511	1	305	40	17	
3	0	0	0	0	537	510	1	421	40	17	
4	0	0	0	0	540	509	2	558	40	17	
5	0	0	0	0	539	509	1	659	40	17	
6	0	0	0	0	532	509	0	723	40	17	
7	0	0	0	0	525	511	0	711	40	17	
8	0	0	0	0	512	511	3	664	40	17	
9	0	0	0	0	512	507	0	690	40	17	
10	0	0	0	0	515	507	1	738	40	17	
11	0	0	0	0	509	509	1	744	40	17	
12	0	0	0	0	504	511	3	712	40	17	
13	0	0	0	0	491	507	3	652	40	17	
14	0	0	0	0	487	509	2	582	40	17	
15	0	0	0	0	483	507	2	503	40	17	
0	0	0	0	0	479	507	3	428	40	17	
1	0	0	0	0	499	509	3	472	40	17	
2	0	0	0	0	520	509	2	588	40	17	
3	0	0	0	0	533	511	2	708	40	17	
4	0	0	0	0	538	512	3	799	40	17	
5	0	0	0	0	545	512	3	890	40	17	
6	0	0	0	0	545	511	1	924	40	17	
7	0	0	0	0	528	511	0	899	40	17	
8	0	0	0	0	517	512	3	855	40	17	
9	0	0	0	0	514	508	0	765	40	17	
10	0	0	0	0	518	511	3	691	40	17	
11	0	0	0	0	515	512	2	643	40	17	
12	0	0	0	0	504	511	1	599	40	17	
13	0	0	0	0	497	510	2	552	40	17	
14	0	0	0	0	492	510	3	471	40	17	
15	0	0	0	0	484	509	2	367	40	17	
0	0	0	0	0	480	508	2	282	40	17	
1	0	0	0	0	482	508	2	198	40	17	
2	0	0	0	0	506	510	0	193	40	17	
3	0	0	0	0	529	509	0	212	40	17	
4	0	0	0	0	539	508	3	285	40	17	
5	0	0	0	0	542	508	1	393	40	17	
6	0	0	0	0	543	509	1	448	40	17	
7	0	0	0	0	534	511	0	425	40	17	
8	0	0	0	0	521	510	1	371	40	17	
9	0	0	0	0	509	511	0	335	40	17	
10	0	0	0	0	511	513	0	314	40	17	
11	0	0	0	0	513	512	0	284	40	17	
12	0	0	0	0	508	510	1	246	40	17	
13	0	0	0	0	508	509	2	215	40	17	
14	0	0	0	0	504	510	3	162	40	17	
15	0	0	0	0	487	511	2	95	40	17	
0	0	0	0	0	479	510	1	22	40	17	
1	0	0	0	0	478	510	2	0	40	17	
2	0	0	0	0	495	511	1	0	40	17	
3	0	0	0	0	516	511	0	0	40	17	
4	0	0	0	0	534	512	3	0	40	17	
5	0	0	0	0	542	509	0	290	40	17	
6	0	0	0	0	544	511	3	455	40	17	
7	0	0	0	0	537	512	2	496	40	17	
8	0	0	0	0	529	510	3	472	40	17	
9	0	0	0	0	523	510	3	482	40	17	
10	0	0	0	0	511	510	1	515	40	17	
11	0	0	0	0	517	508	1	537	40	17	
12	0	0	0	0	516	508	3	555	40	17	
13	0	0	0	0	508	510	0	577	40	17	
14	0	0	0	0	497	510	1	550	40	17	
15	0	0	0	0	489	510	2	482	40	17	
0	0	0	0	0	483	509	2	387	40	17	
1	0	0	0	0	482	510	2	289	40	17	
2	0	0	0	0	482	511	2	217	40	17	
3	0	0	0	0	499	511	2	207	40	17	
4	0	0	0	0	523	512	1	250	40	17	
5	0	0	0	0	537	511	1	357	40	17	
6	0	0	0	0	546	512	1	534	40	17	
7	0	0	0	0	549	514	1	687	40	17	
8	0	0	0	0	540	513	3	824	40	17	
9	0	0	0	0	530	513	0	868	40	17	
10	0	0	0	0	517	512	0	851	40	17	
11	0	0	0	0	513	511	0	785	40	17	
12	0	0	0	0	513	513	3	744	40	17	
13	0	0	0	0	509	512	0	775	40	17	
14	0	0	0	0	504	513	1	791	40	17	
15	0	0	0	0	496	513	1	728	40	17	
0	0	0	0	0	487	514	3	641	40	17	
1	0	0	0	0	484	512	3	571	40	17	
2	0	0	0	0	481	510	2	503	40	17	
3	0	0	0	0	486	510	2	439	40	17	
4	0	0	0	0	510	510	2	463	40	17	
5	0	0	0	0	526	510	2	512	40	17	
6	0	0	0	0	536	510	3	625	40	17	
7	0	0	0	0	548	511	3	755	40	17	
8	0	0	0	0	543	512	4	895	40	17	
9	0	0	0	0	529	508	2	986	40	17	
10	0	0	0	0	525	511	3	968	40	17	
11	0	0	0	0	514	511	2	860	40	17	
12	0	0	0	0	515	511	1	781	40	17	
13	0	0	0	0	513	511	1	737	40	17	
14	0	0	0	0	509	511	0	707	40	17	
15	0	0	0	0	500	512	1	633	40	17	
0	0	0	0	0	496	511	2	534	40	17	
1	0	0	0	0	489	510	0	448	40	17	
2	0	0	0	0	483	512	3	416	40	17	
3	0	0	0	0	483	510	1	359	40	17	
4	0	0	0	0	491	508	3	322	40	17	
5	0	0	0	0	514	508	3	415	40	17	
6	0	0	0	0	534	510	3	588	40	17	
7	0	0	0	0	539	508	1	731	40	17	
8	0	0	0	0	540	507	1	853	40	17	
9	0	0	0	0	540	506	1	933	40	17	
10	0	0	0	0	531	508	0	975	40	17	
11	0	0	0	0	519	508	1	998	40	17	
12	0	0	0	0	511	509	3	997	40	17	
13	0	0	0	0	512	508	2	1017	40	17	
14	0	0	0	0	512	508	3	995	40	17	
15	0	0	0	0	508	509	2	913	40	17	
0	0	0	0	0	502	507	3	863	40	17	
1	0	0	0	0	494	507	3	775	40	17	
2	0	0	0	0	484	508	1	666	40	17	
3	0	0	0	0	482	509	1	535	40	17	
4	0	0	0	0	480	509	3	404	40	17	
5	0	0	0	0	499	510	0	372	40	17	
6	0	0	0	0	520	509	1	429	40	17	
7	0	0	0	0	535	509	2	507	40	17	
8	0	0	0	0	541	507	3	626	40	17	
9	0	0	0	0	541	508	3	814	40	17	
10	0	0	0	0	535	509	2	942	40	17	
11	0	0	0	0	524	509	2	902	40	17	
12	0	0	0	0	516	508	1	787	40	17	
13	0	0	0	0	517	511	3	675	40	17	
14	0	0	0	0	518	511	2	609	40	17	
15	0	0	0	0	518	511	1	546	40	17	
0	0	0	0	0	506	508	3	478	40	17	
1	0	0	0	0	496	508	1	445	40	17	
2	0	0	0	0	492	508	0	382	40	17	
3	0	0	0	0	484	510	0	276	40	17	
4	0	0	0	0	478	508	3	203	40	17	
5	0	0	0	0	485	510	1	148	40	17	
6	0	0	0	0	507	509	3	123	40	17	
7	0	0	0	0	524	509	2	155	40	17	
8	0	0	0	0	539	508	2	279	40	17	
9	0	0	0	0	544	510	2	428	40	17	
10	0	0	0	0	539	510	3	532	40	17	
11	0	0	0	0	534	512	2	521	40	17	
12	0	0	0	0	526	511	1	476	40	17	
13	0	0	0	0	510	511	1	407	40	17	
14	0	0	0	0	511	510	1	349	40	17	
15	0	0	0	0	517	509	0	307	40	17	
0	0	0	0	0	513	508	3	262	40	17	
1	0	0	0	0	504	508	0	215	40	17	
2	0	0	0	0	496	508	0	154	40	17	
3	0	0	0	0	487	507	0	74	40	17	
4	0	0	0	0	480	507	1	3	40	17	
5	0	0	0	0	479	509	0	0	40	17	
6	0	0	0	0	496	510	2	0	40	17	
7	0	0	0	0	515	510	2	88	40	17	
8	0	0	0	0	527	511	2	263	40	17	
9	0	0	0	0	542	510	2	406	40	17	
10	0	0	0	0	550	510	2	524	40	17	
11	0	0	0	0	539	512	2	578	40	17	
12	0	0	0	0	530	512	3	563	40	17	
13	0	0	0	0	518	512	3	543	40	17	
14	0	0	0	0	512	512	3	522	40	17	
15	0	0	0	0	515	513	2	516	40	17	
0	0	0	0	0	513	512	3	518	40	17	
1	0	0	0	0	508	512	2	534	40	17	
2	0	0	0	0	501	510	3	545	40	17	
3	0	0	0	0	491	509	2	524	40	17	
4	0	0	0	0	485	509	3	442	40	17	
5	0	0	0	0	478	508	2	356	40	17	
6	0	0	0	0	478	508	3	280	40	17	
7	0	0	0	0	499	509	2	227	40	17	
8	0	0	0	0	519	509	1	233	40	17	
9	0	0	0	0	534	509	2	272	40	17	
10	0	0	0	0	537	510	2	313	40	17	
11	0	0	0	0	539	512	1	345	40	17	
12	0	0	0	0	532	511	3	406	40	17	
13	0	0	0	0	528	510	1	464	40	17	
14	0	0	0	0	515	511	0	523	40	17	
15	0	0	0	0	513	511	0	529	40	17	
0	0	0	0	0	511	511	1	549	40	17	
1	0	0	0	0	508	510	1	615	40	17	
2	0	0	0	0	503	508	3	643	40	17	
3	0	0	0	0	497	509	2	602	40	17	
4	0	0	0	0	491	510	1	525	40	17	
5	0	0	0	0	483	509	3	485	40	17	
6	0	0	0	0	484	511	2	457	40	17	
7	0	0	0	0	487	512	2	439	40	17	
8	0	0	0	0	512	510	2	452	40	17	
9	0	0	0	0	534	510	3	554	40	17	
10	0	0	0	0	539	510	3	828	40	17	
11	0	0	0	0	546	510	3	1018	40	17	
12	0	0	0	0	545	511	3	1018	40	17	
13	0	0	0	0	535	511	2	1018	40	17	
14	0	0	0	0	532	510	1	1018	40	17	
15	0	0	0	0	524	509	0	1017	40	17	
0	0	0	0	0	524	509	3	1019	40	17	
1	0	0	0	0	529	510	0	1018	40	17	
2	0	0	0	0	527	510	2	1018	40	17	
3	0	0	0	0	518	512	2	896	40	17	
4	0	0	0	0	511	513	4	734	40	17	
5	0	0	0	0	506	513	3	655	40	17	
6	0	0	0	0	495	512	3	588	40	17	
7	0	0	0	0	488	515	1	518	40	17	
8	0	0	0	0	497	512	3	479	40	17	
9	0	0	0	0	517	511	1	532	40	17	
10	0	0	0	0	531	512	1	672	40	17	
11	0	0	0	0	540	510	0	825	40	17	
12	0	0	0	0	541	508	3	952	40	17	
13	0	0	0	0	535	507	0	1002	40	17	
14	0	0	0	0	522	508	1	974	40	17	
15	0	0	0	0	510	507	2	896	40	17	
0	0	0	0	0	499	507	3	803	40	17	
1	0	0	0	0	506	507	2	724	40	17	
2	0	0	0	0	510	508	2	652	40	17	
3	0	0	0	0	499	509	2	579	40	17	
4	0	0	0	0	488	509	3	550	40	17	
5	0	0	0	0	478	510	2	521	40	17	
6	0	0	0	0	473	510	2	435	40	17	
7	0	0	0	0	475	508	2	337	40	17	
8	0	0	0	0	477	508	3	263	40	17	
9	0	0	0	0	496	507	3	266	40	17	
10	0	0	0	0	516	508	2	345	40	17	
11	0	0	0	0	536	510	0	493	40	17	
12	0	0	0	0	547	510	3	666	40	17	
13	0	0	0	0	543	511	1	831	40	17	
14	0	0	0	0	533	512	0	892	40	17	
15	0	0	0	0	524	512	0	839	40	17	
0	0	0	0	0	511	511	3	715	40	17	
1	0	0	0	0	510	511	1	584	40	17	
2	0	0	0	0	510	511	3	505	40	17	
3	0	0	0	0	509	511	2	453	40	17	
4	0	0	0	0	505	510	1	376	40	17	
5	0	0	0	0	497	509	3	299	40	17	
6	0	0	0	0	487	510	1	197	40	17	
7	0	0	0	0	483	510	1	86	40	17	
8	0	0	0	0	482	507	1	25	40	17	
9	0	0	0	0	483	507	1	16	40	17	
10	0	0	0	0	507	509	0	30	40	17	
11	0	0	0	0	527	508	0	57	40	17	
12	0	0	0	0	537	508	1	157	40	17	
13	0	0	0	0	540	509	0	269	40	17	
14	0	0	0	0	543	510	1	350	40	17	
15	0	0	0	0	535	511	2	355	40	17	
0	0	0	0	0	525	509	3	320	40	17	
1	0	0	0	0	515	509	3	280	40	17	
2	0	0	0	0	516	510	2	267	40	17	
3	0	0	0	0	515	510	2	263	40	17	
4	0	0	0	0	508	509	2	293	40	17	
5	0	0	0	0	504	510	3	326	40	17	
6	0	0	0	0	497	510	3	353	40	17	
7	0	0	0	0	486	510	1	347	40	17	
8	0	0	0	0	482	510	2	326	40	17	
9	0	0	0	0	479	508	0	316	40	17	
10	0	0	0	0	497	507	0	342	40	17	
11	0	0	0	0	520	509	0	381	40	17	
12	0	0	0	0	532	509	3	490	40	17	
13	0	0	0	0	540	509	1	607	40	17	
14	0	0	0	0	542	511	2	712	40	17	
15	0	0	0	0	541	511	3	736	40	17	
0	0	0	0	0	532	512	4	746	40	17	
1	0	0	0	0	521	510	2	783	40	17	
2	0	0	0	0	512	510	3	784	40	17	
3	0	0	0	0	515	509	2	783	40	17	
4	0	0	0	0	514	509	3	753	40	17	
5	0	0	0	0	509	508	3	736	40	17	
6	0	0	0	0	504	508	2	696	40	17	
7	0	0	0	0	494	509	1	637	40	17	
8	0	0	0	0	487	511	1	551	40	17	
9	0	0	0	0	485	509	0	456	40	17	
10	0	0	0	0	483	510	0	372	40	17	
11	0	0	0	0	503	510	0	318	40	17	
12	0	0	0	0	522	511	3	343	40	17	
13	0	0	0	0	537	512	2	494	40	17	
14	0	0	0	0	540	511	3	715	40	17	
15	0	0	0	0	543	511	2	825	40	17	
0	0	0	0	0	539	511	1	903	40	17	
1	0	0	0	0	524	510	3	939	40	17	
2	0	0	0	0	516	511	2	919	40	17	
3	0	0	0	0	512	512	1	798	40	17	
4	0	0	0	0	509	511	2	674	40	17	
5	0	0	0	0	508	509	1	646	40	17	
6	0	0	0	0	505	511	1	644	40	17	
7	0	0	0	0	498	511	0	587	40	17	
8	0	0	0	0	483	511	3	482	40	17	
9	0	0	0	0	485	511	0	364	40	17	
10	0	0	0	0	485	511	2	255	40	17	
11	0	0	0	0	490	511	2	202	40	17	
12	0	0	0	0	510	512	3	245	40	17	
13	0	0	0	0	527	510	3	354	40	17	
14	0	0	0	0	537	511	2	545	40	17	
15	0	0	0	0	545	510	2	736	40	17	
0	0	0	0	0	542	511	3	916	40	17	
1	0	0	0	0	537	510	2	1018	40	17	
2	0	0	0	0	523	511	2	1018	40	17	
3	0	0	0	0	513	510	1	923	40	17	
4	0	0	0	0	512	510	3	839	40	17	
5	0	0	0	0	513	512	1	796	40	17	
6	0	0	0	0	512	512	0	747	40	17	
7	0	0	0	0	504	509	0	656	40	17	
8	0	0	0	0	497	507	3	538	40	17	
9	0	0	0	0	489	509	0	463	40	17	
10	0	0	0	0	483	509	1	397	40	17	
11	0	0	0	0	482	509	0	337	40	17	
12	0	0	0	0	496	508	3	312	40	17	
13	0	0	0	0	515	508	1	469	40	17	
14	0	0	0	0	531	509	3	704	40	17	
15	0	0	0	0	538	510	2	860	40	17	
0	0	0	0	0	534	508	1	966	40	17	
1	0	0	0	0	536	508	3	999	40	17	
2	0	0	0	0	533	508	3	1018	40	17	
3	0	0	0	0	523	508	2	965	40	17	
4	0	0	0	0	513	509	2	872	40	17	
5	0	0	0	0	516	509	2	792	40	17	
6	0	0	0	0	516	510	3	687	40	17	
7	0	0	0	0	507	511	3	545	40	17	
8	0	0	0	0	500	507	1	449	40	17	
9	0	0	0	0	491	508	3	406	40	17	
10	0	0	0	0	481	509	2	332	40	17	
11	0	0	0	0	480	510	2	218	40	17	
12	0	0	0	0	484	510	3	130	40	17	
13	0	0	0	0	506	509	1	151	40	17	
14	0	0	0	0	526	509	1	258	40	17	
15	0	0	0	0	542	511	0	396	40	17	
0	0	0	0	0	544	511	3	565	40	17	
1	0	0	0	0	541	512	1	780	40	17	
2	0	0	0	0	536	512	0	989	40	17	
3	0	0	0	0	525	512	1	1018	40	17	
4	0	0	0	0	514	512	1	1017	40	17	
5	0	0	0	0	510	511	1	1018	40	17	
6	0	0	0	0	514	511	3	930	40	17	
7	0	0	0	0	517	511	2	797	40	17	
8	0	0	0	0	507	510	3	659	40	17	
9	0	0	0	0	499	509	2	514	40	17	
10	0	0	0	0	487	511	2	362	40	17	
11	0	0	0	0	480	510	2	228	40	17	
12	0	0	0	0	476	512	3	150	40	17	
13	0	0	0	0	489	513	2	111	40	17	
14	0	0	0	0	510	514	3	123	40	17	
15	0	0	0	0	524	514	1	148	40	17	
0	0	0	0	0	539	513	2	252	40	17	
1	0	0	0	0	543	510	1	426	40	17	
2	0	0	0	0	541	512	0	576	40	17	
3	0	0	0	0	531	512	0	618	40	17	
4	0	0	0	0	524	510	1	617	40	17	
5	0	0	0	0	514	510	1	571	40	17	
6	0	0	0	0	519	509	3	502	40	17	
7	0	0	0	0	520	509	2	423	40	17	
8	0	0	0	0	511	509	2	359	40	17	
9	0	0	0	0	504	509	2	296	40	17	
10	0	0	0	0	496	510	3	199	40	17	
11	0	0	0	0	486	512	2	85	40	17	
12	0	0	0	0	478	511	1	0	40	17	
13	0	0	0	0	476	512	2	0	40	17	
14	0	0	0	0	496	512	1	0	40	17	
15	0	0	0	0	517	514	0	0	40	17	
0	0	0	0	0	529	513	2	143	40	17	
1	0	0	0	0	538	513	1	323	40	17	
2	0	0	0	0	545	512	0	468	40	17	
3	0	0	0	0	544	514	0	544	40	17	
4	0	0	0	0	531	513	2	615	40	17	
5	0	0	0	0	518	513	0	661	40	17	
6	0	0	0	0	510	513	2	683	40	17	
7	0	0	0	0	512	513	2	616	40	17	
8	0	0	0	0	511	512	3	563	40	17	
9	0	0	0	0	506	511	2	538	40	17	
10	0	0	0	0	503	509	2	467	40	17	
11	0	0	0	0	492	511	2	376	40	17	
12	0	0	0	0	488	510	3	280	40	17	
13	0	0	0	0	479	508	2	209	40	17	
14	0	0	0	0	483	508	3	158	40	17	
15	0	0	0	0	504	507	2	200	40	17	
0	0	0	0	0	523	507	2	307	40	17	
1	0	0	0	0	537	507	2	485	40	17	
2	0	0	0	0	543	508	3	685	40	17	
3	0	0	0	0	539	508	2	816	40	17	
4	0	0	0	0	534	507	1	878	40	17	
5	0	0	0	0	528	508	2	864	40	17	
6	0	0	0	0	518	509	2	784	40	17	
7	0	0	0	0	514	510	2	663	40	17	
8	0	0	0	0	515	511	4	541	40	17	
9	0	0	0	0	511	511	2	489	40	17	
10	0	0	0	0	502	512	2	418	40	17	
11	0	0	0	0	498	512	2	315	40	17	
12	0	0	0	0	492	510	3	210	40	17	
13	0	0	0	0	483	509	3	162	40	17	
14	0	0	0	0	480	509	3	134	40	17	
15	0	0	0	0	487	508	2	113	40	17	
0	0	0	0	0	512	507	2	138	40	17	
1	0	0	0	0	524	508	3	261	40	17	
2	0	0	0	0	536	508	2	446	40	17	
3	0	0	0	0	543	508	1	604	40	17	
4	0	0	0	0	537	507	3	704	40	17	
5	0	0	0	0	531	509	1	746	40	17	
6	0	0	0	0	523	509	1	698	40	17	
7	0	0	0	0	516	510	0	582	40	17	
8	0	0	0	0	517	509	2	522	40	17	
9	0	0	0	0	516	509	0	528	40	17	
10	0	0	0	0	512	509	0	562	40	17	
11	0	0	0	0	501	509	1	506	40	17	
12	0	0	0	0	493	510	1	428	40	17	
13	0	0	0	0	488	511	3	380	40	17	
14	0	0	0	0	480	512	3	352	40	17	
15	0	0	0	0	479	512	2	292	40	17	
0	0	0	0	0	499	513	3	234	40	17	
1	0	0	0	0	514	515	3	289	40	17	
2	0	0	0	0	532	515	3	506	40	17	
3	0	0	0	0	543	513	2	756	40	17	
4	0	0	0	0	543	513	1	958	40	17	
5	0	0	0	0	537	513	2	1018	40	17	
6	0	0	0	0	530	513	1	1017	40	17	
7	0	0	0	0	522	513	1	896	40	17	
8	0	0	0	0	509	512	1	776	40	17	
9	0	0	0	0	513	512	0	698	40	17	
10	0	0	0	0	512	512	0	620	40	17	
11	0	0	0	0	506	512	0	510	40	17	
12	0	0	0	0	505	510	3	433	40	17	
13	0	0	0	0	491	508	1	386	40	17	
14	0	0	0	0	481	510	2	324	40	17	
15	0	0	0	0	480	510	2	237	40	17	
0	0	0	0	0	484	510	4	167	40	17	
1	0	0	0	0	505	508	2	218	40	17	
2	0	0	0	0	523	510	2	418	40	17	
3	0	0	0	0	537	510	1	561	40	17	
4	0	0	0	0	544	511	3	648	40	17	
5	0	0	0	0	537	510	2	791	40	17	
6	0	0	0	0	534	511	1	942	40	17	
7	0	0	0	0	524	509	1	1000	40	17	
8	0	0	0	0	519	509	2	963	40	17	
9	0	0	0	0	513	506	1	915	40	17	
10	0	0	0	0	521	508	1	870	40	17	
11	0	0	0	0	516	509	1	770	40	17	
12	0	0	0	0	508	508	3	652	40	17	
13	0	0	0	0	497	507	0	542	40	17	
14	0	0	0	0	489	505	0	416	40	17	
15	0	0	0	0	480	507	0	283	40	17	
0	0	0	0	0	480	508	3	209	40	17	
1	0	0	0	0	488	508	1	143	40	17	
2	0	0	0	0	512	510	0	120	40	17	
3	0	0	0	0	529	509	0	130	40	17	
4	0	0	0	0	539	510	1	260	40	17	
5	0	0	0	0	542	511	1	395	40	17	
6	0	0	0	0	542	511	1	515	40	17	
7	0	0	0	0	533	510	0	557	40	17	
8	0	0	0	0	524	510	3	558	40	17	
9	0	0	0	0	510	507	1	539	40	17	
10	0	0	0	0	512	509	0	476	40	17	
11	0	0	0	0	513	511	0	403	40	17	
12	0	0	0	0	508	508	3	333	40	17	
13	0	0	0	0	504	507	1	287	40	17	
14	0	0	0	0	495	510	0	237	40	17	
15	0	0	0	0	488	508	0	166	40	17	
0	0	0	0	0	476	507	3	82	40	17	
1	0	0	0	0	480	507	0	18	40	17	
2	0	0	0	0	499	509	0	0	40	17	
3	0	0	0	0	517	512	0	0	40	17	
4	0	0	0	0	532	512	3	135	40	17	
5	0	0	0	0	539	511	1	246	40	17	
6	0	0	0	0	540	510	1	337	40	17	
7	0	0	0	0	540	510	0	352	40	17	
8	0	0	0	0	537	509	2	355	40	17	
9	0	0	0	0	522	510	1	376	40	17	
10	0	0	0	0	512	511	0	353	40	17	
11	0	0	0	0	515	510	0	302	40	17	
12	0	0	0	0	513	509	1	302	40	17	
13	0	0	0	0	509	507	1	327	40	17	
14	0	0	0	0	500	509	2	324	40	17	
15	0	0	0	0	489	510	2	267	40	17	
0	0	0	0	0	488	511	1	222	40	17	
1	0	0	0	0	485	512	2	221	40	17	
2	0	0	0	0	487	513	3	274	40	17	
3	0	0	0	0	506	512	2	342	40	17	
4	0	0	0	0	529	510	1	485	40	17	
5	0	0	0	0	538	510	2	654	40	17	
6	0	0	0	0	543	510	2	811	40	17	
7	0	0	0	0	542	511	2	862	40	17	
8	0	0	0	0	535	511	3	904	40	17	
9	0	0	0	0	524	508	3	916	40	17	
10	0	0	0	0	514	509	2	886	40	17	
11	0	0	0	0	514	510	2	783	40	17	
12	0	0	0	0	513	509	2	674	40	17	
13	0	0	0	0	511	510	2	660	40	17	
14	0	0	0	0	503	508	3	635	40	17	
15	0	0	0	0	499	508	2	569	40	17	
0	0	0	0	0	489	507	3	477	40	17	
1	0	0	0	0	483	508	2	460	40	17	
2	0	0	0	0	480	509	2	400	40	17	
3	0	0	0	0	491	509	2	345	40	17	
4	0	0	0	0	512	510	3	359	40	17	
5	0	0	0	0	526	510	2	468	40	17	
6	0	0	0	0	540	511	3	773	40	17	
7	0	0	0	0	543	511	3	1018	40	17	
8	0	0	0	0	542	511	3	1019	40	17	
9	0	0	0	0	530	511	2	1018	40	17	
10	0	0	0	0	521	511	1	1018	40	17	
11	0	0	0	0	512	512	1	1018	40	17	
12	0	0	0	0	516	511	2	1019	40	17	
13	0	0	0	0	517	512	1	1018	40	17	
14	0	0	0	0	516	513	0	1018	40	17	
15	0	0	0	0	507	513	1	781	40	17	
0	0	0	0	0	497	511	3	645	40	17	
1	0	0	0	0	489	508	1	569	40	17	
2	0	0	0	0	480	506	1	471	40	17	
3	0	0	0	0	478	507	0	380	40	17	
4	0	0	0	0	495	509	3	352	40	17	
5	0	0	0	0	517	509	1	463	40	17	
6	0	0	0	0	530	507	2	672	40	17	
7	0	0	0	0	536	507	2	870	40	17	
8	0	0	0	0	537	506	1	1017	40	17	
9	0	0	0	0	533	506	2	1018	40	17	
10	0	0	0	0	526	508	3	1018	40	17	
11	0	0	0	0	522	509	3	1018	40	17	
12	0	0	0	0	508	509	2	1018	40	17	
13	0	0	0	0	513	508	2	914	40	17	
14	0	0	0	0	514	509	3	767	40	17	
15	0	0	0	0	511	509	1	628	40	17	
0	0	0	0	0	503	507	1	534	40	17	
1	0	0	0	0	492	507	1	453	40	17	
2	0	0	0	0	485	508	0	325	40	17	
3	0	0	0	0	484	510	0	197	40	17	
4	0	0	0	0	486	508	3	141	40	17	
5	0	0	0	0	503	509	0	188	40	17	
6	0	0	0	0	519	509	1	297	40	17	
7	0	0	0	0	538	510	0	444	40	17	
8	0	0	0	0	539	510	3	592	40	17	
9	0	0	0	0	541	508	1	771	40	17	
10	0	0	0	0	531	509	1	860	40	17	
11	0	0	0	0	522	509	1	836	40	17	
12	0	0	0	0	512	509	1	778	40	17	
13	0	0	0	0	511	510	0	690	40	17	
14	0	0	0	0	514	510	1	675	40	17	
15	0	0	0	0	513	511	0	641	40	17	
0	0	0	0	0	504	513	3	562	40	17	
1	0	0	0	0	497	511	0	489	40	17	
2	0	0	0	0	483	510	0	391	40	17	
3	0	0	0	0	481	511	0	286	40	17	
4	0	0	0	0	486	511	2	246	40	17	
5	0	0	0	0	498	511	0	250	40	17	
6	0	0	0	0	520	513	0	337	40	17	
7	0	0	0	0	528	513	0	436	40	17	
8	0	0	0	0	538	512	2	564	40	17	
9	0	0	0	0	543	511	1	688	40	17	
10	0	0	0	0	541	510	3	712	40	17	
11	0	0	0	0	530	509	2	649	40	17	
12	0	0	0	0	516	508	3	575	40	17	
13	0	0	0	0	508	509	3	501	40	17	
14	0	0	0	0	508	508	2	417	40	17	
15	0	0	0	0	515	508	2	333	40	17	
0	0	0	0	0	509	505	1	248	40	17	
1	0	0	0	0	503	506	3	159	40	17	
2	0	0	0	0	497	508	3	77	40	17	
3	0	0	0	0	484	511	2	2	40	17	
4	0	0	0	0	482	510	1	0	40	17	
5	0	0	0	0	480	508	1	0	40	17	
6	0	0	0	0	496	508	1	0	40	17	
7	0	0	0	0	516	508	0	0	40	17	
8	0	0	0	0	532	508	1	0	40	17	
9	0	0	0	0	542	508	1	214	40	17	
10	0	0	0	0	541	510	0	346	40	17	
11	0	0	0	0	538	509	0	391	40	17	
12	0	0	0	0	528	508	3	393	40	17	
13	0	0	0	0	519	509	1	355	40	17	
14	0	0	0	0	510	509	2	302	40	17	
15	0	0	0	0	511	509	2	261	40	17	
0	0	0	0	0	513	508	3	253	40	17	
1	0	0	0	0	505	508	2	244	40	17	
2	0	0	0	0	502	508	2	226	40	17	
3	0	0	0	0	495	508	2	175	40	17	
4	0	0	0	0	487	508	2	109	40	17	
5	0	0	0	0	479	507	3	60	40	17	
6	0	0	0	0	484	511	1	48	40	17	
7	0	0	0	0	504	512	1	99	40	17	
8	0	0	0	0	524	512	3	190	40	17	
9	0	0	0	0	537	513	1	325	40	17	
10	0	0	0	0	543	513	1	480	40	17	
11	0	0	0	0	542	516	0	605	40	17	
12	0	0	0	0	536	516	3	690	40	17	
13	0	0	0	0	526	514	0	765	40	17	
14	0	0	0	0	518	514	0	844	40	17	
15	0	0	0	0	513	514	0	792	40	17	
0	0	0	0	0	515	515	3	712	40	17	
1	0	0	0	0	509	512	0	682	40	17	
2	0	0	0	0	501	511	1	635	40	17	
3	0	0	0	0	497	512	0	527	40	17	
4	0	0	0	0	488	513	3	402	40	17	
5	0	0	0	0	482	511	0	322	40	17	
6	0	0	0	0	482	511	0	264	40	17	
7	0	0	0	0	492	511	0	230	40	17	
8	0	0	0	0	511	512	2	287	40	17	
9	0	0	0	0	527	511	0	412	40	17	
10	0	0	0	0	541	512	1	591	40	17	
11	0	0	0	0	544	512	0	789	40	17	
12	0	0	0	0	542	513	3	986	40	17	
13	0	0	0	0	535	509	0	1018	40	17	
14	0	0	0	0	524	509	3	1018	40	17	
15	0	0	0	0	512	511	2	1017	40	17	
0	0	0	0	0	515	510	1	941	40	17	
1	0	0	0	0	512	509	3	877	40	17	
2	0	0	0	0	512	509	2	791	40	17	
3	0	0	0	0	502	509	2	657	40	17	
4	0	0	0	0	492	510	3	516	40	17	
5	0	0	0	0	486	508	2	409	40	17	
6	0	0	0	0	479	510	3	306	40	17	
7	0	0	0	0	480	511	1	214	40	17	
8	0	0	0	0	498	508	3	170	40	17	
9	0	0	0	0	517	508	2	222	40	17	
10	0	0	0	0	531	508	3	368	40	17	
11	0	0	0	0	540	508	2	507	40	17	
12	0	0	0	0	542	510	2	636	40	17	
13	0	0	0	0	542	509	2	755	40	17	
14	0	0	0	0	531	510	1	818	40	17	
15	0	0	0	0	522	510	1	779	40	17	
0	0	0	0	0	512	509	3	697	40	17	
1	0	0	0	0	515	509	0	653	40	17	
2	0	0	0	0	512	510	1	617	40	17	
3	0	0	0	0	506	510	0	550	40	17	
4	0	0	0	0	502	513	3	475	40	17	
5	0	0	0	0	492	511	0	401	40	17	
6	0	0	0	0	485	512	0	298	40	17	
7	0	0	0	0	480	512	2	182	40	17	
8	0	0	0	0	486	512	1	80	40	17	
9	0	0	0	0	500	510	2	62	40	17	
10	0	0	0	0	522	510	2	166	40	17	
11	0	0	0	0	536	508	2	327	40	17	
12	0	0	0	0	542	510	3	454	40	17	
13	0	0	0	0	540	508	3	586	40	17	
14	0	0	0	0	536	506	3	638	40	17	
15	0	0	0	0	525	506	1	657	40	17	
0	0	0	0	0	518	505	3	647	40	17	
1	0	0	0	0	517	508	1	584	40	17	
2	0	0	0	0	517	510	1	538	40	17	
3	0	0	0	0	511	510	0	545	40	17	
4	0	0	0	0	502	509	1	544	40	17	
5	0	0	0	0	494	509	0	498	40	17	
6	0	0	0	0	483	510	0	411	40	17	
7	0	0	0	0	482	511	2	316	40	17	
8	0	0	0	0	479	511	2	287	40	17	
9	0	0	0	0	485	511	3	286	40	17	
10	0	0	0	0	505	511	2	365	40	17	
11	0	0	0	0	526	510	2	449	40	17	
12	0	0	0	0	541	510	1	577	40	17	
13	0	0	0	0	545	508	3	752	40	17	
14	0	0	0	0	537	507	3	896	40	17	
15	0	0	0	0	532	508	2	960	40	17	
0	0	0	0	0	527	507	2	933	40	17	
1	0	0	0	0	517	506	1	850	40	17	
2	0	0	0	0	518	506	1	720	40	17	
3	0	0	0	0	515	508	0	633	40	17	
4	0	0	0	0	508	509	2	564	40	17	
5	0	0	0	0	503	509	0	480	40	17	
6	0	0	0	0	496	509	0	400	40	17	
7	0	0	0	0	485	510	0	323	40	17	
8	0	0	0	0	479	509	1	268	40	17	
9	0	0	0	0	482	509	2	217	40	17	
10	0	0	0	0	496	510	2	184	40	17	
11	0	0	0	0	517	511	2	224	40	17	
12	0	0	0	0	535	512	3	348	40	17	
13	0	0	0	0	541	511	2	500	40	17	
14	0	0	0	0	541	512	2	629	40	17	
15	0	0	0	0	536	512	2	671	40	17	
0	0	0	0	0	531	512	2	651	40	17	
1	0	0	0	0	524	509	2	672	40	17	
2	0	0	0	0	512	510	1	741	40	17	
3	0	0	0	0	519	511	0	790	40	17	
4	0	0	0	0	516	512	3	788	40	17	
5	0	0	0	0	508	512	1	768	40	17	
6	0	0	0	0	503	512	0	685	40	17	
7	0	0	0	0	490	513	0	570	40	17	
8	0	0	0	0	483	512	2	483	40	17	
9	0	0	0	0	476	512	0	424	40	17	
10	0	0	0	0	482	513	0	370	40	17	
11	0	0	0	0	501	513	2	355	40	17	
12	0	0	0	0	519	512	1	440	40	17	
13	0	0	0	0	536	509	2	579	40	17	
14	0	0	0	0	547	509	2	720	40	17	
15	0	0	0	0	545	509	2	825	40	17	
0	0	0	0	0	537	509	2	937	40	17	
1	0	0	0	0	531	510	3	985	40	17	
2	0	0	0	0	519	510	2	942	40	17	
3	0	0	0	0	512	510	3	831	40	17	
4	0	0	0	0	513	509	3	754	40	17	
5	0	0	0	0	514	510	3	736	40	17	
6	0	0	0	0	505	509	2	685	40	17	
7	0	0	0	0	497	511	0	599	40	17	
8	0	0	0	0	488	509	3	489	40	17	
9	0	0	0	0	484	509	1	391	40	17	
10	0	0	0	0	480	509	0	304	40	17	
11	0	0	0	0	487	509	0	245	40	17	
12	0	0	0	0	505	508	2	276	40	17	
13	0	0	0	0	524	509	1	404	40	17	
14	0	0	0	0	534	511	3	545	40	17	
15	0	0	0	0	541	512	2	651	40	17	
0	0	0	0	0	537	509	1	752	40	17	
1	0	0	0	0	534	509	2	828	40	17	
2	0	0	0	0	528	510	3	812	40	17	
3	0	0	0	0	513	508	2	725	40	17	
4	0	0	0	0	513	508	2	622	40	17	
5	0	0	0	0	515	507	3	546	40	17	
6	0	0	0	0	509	506	1	531	40	17	
7	0	0	0	0	505	506	1	470	40	17	
8	0	0	0	0	498	507	1	402	40	17	
9	0	0	0	0	489	506	1	320	40	17	
10	0	0	0	0	484	507	0	208	40	17	
11	0	0	0	0	481	509	0	80	40	17	
12	0	0	0	0	497	510	3	9	40	17	
13	0	0	0	0	517	511	1	97	40	17	
14	0	0	0	0	529	513	3	264	40	17	
15	0	0	0	0	538	513	2	359	40	17	
0	0	0	0	0	541	512	3	384	40	17	
1	0	0	0	0	539	513	2	349	40	17	
2	0	0	0	0	528	512	3	283	40	17	
3	0	0	0	0	513	512	2	207	40	17	
4	0	0	0	0	510	509	3	145	40	17	
5	0	0	0	0	515	507	3	130	40	17	
6	0	0	0	0	518	508	1	128	40	17	
7	0	0	0	0	511	510	1	115	40	17	
8	0	0	0	0	501	512	2	111	40	17	
9	0	0	0	0	492	510	1	113	40	17	
10	0	0	0	0	486	510	0	74	40	17	
11	0	0	0	0	481	509	0	7	40	17	
12	0	0	0	0	483	510	2	0	40	17	
13	0	0	0	0	504	511	0	0	40	17	
14	0	0	0	0	525	511	0	154	40	17	
15	0	0	0	0	539	509	0	293	40	17	
0	0	0	0	0	544	509	3	433	40	17	
1	0	0	0	0	544	509	1	555	40	17	
2	0	0	0	0	539	509	0	608	40	17	
3	0	0	0	0	524	511	0	588	40	17	
4	0	0	0	0	510	510	3	532	40	17	
5	0	0	0	0	510	509	1	479	40	17	
6	0	0	0	0	512	509	0	442	40	17	
7	0	0	0	0	510	510	0	392	40	17	
8	0	0	0	0	503	509	3	324	40	17	
9	0	0	0	0	497	509	1	270	40	17	
10	0	0	0	0	487	508	0	206	40	17	
11	0	0	0	0	484	509	0	126	40	17	
12	0	0	0	0	482	509	1	76	40	17	
13	0	0	0	0	486	508	1	41	40	17	
14	0	0	0	0	512	509	1	52	40	17	
15	0	0	0	0	529	510	0	103	40	17	
0	0	0	0	0	542	511	2	210	40	17	
1	0	0	0	0	544	511	1	385	40	17	
2	0	0	0	0	542	511	1	526	40	17	
3	0	0	0	0	534	513	0	557	40	17	
4	0	0	0	0	523	512	3	521	40	17	
5	0	0	0	0	513	513	1	472	40	17	
6	0	0	0	0	517	512	0	413	40	17	
7	0	0	0	0	515	512	0	364	40	17	
8	0	0	0	0	511	512	2	339	40	17	
9	0	0	0	0	503	511	0	377	40	17	
10	0	0	0	0	494	511	0	395	40	17	
11	0	0	0	0	483	511	0	354	40	17	
12	0	0	0	0	481	510	3	273	40	17	
13	0	0	0	0	482	510	1	185	40	17	
14	0	0	0	0	497	512	0	135	40	17	
15	0	0	0	0	518	512	0	142	40	17	
0	0	0	0	0	533	510	3	241	40	17	
1	0	0	0	0	541	511	0	384	40	17	
2	0	0	0	0	547	511	0	526	40	17	
3	0	0	0	0	538	511	1	609	40	17	
4	0	0	0	0	527	511	3	670	40	17	
5	0	0	0	0	521	510	0	703	40	17	
6	0	0	0	0	510	510	3	664	40	17	
7	0	0	0	0	515	512	2	614	40	17	
8	0	0	0	0	512	512	4	559	40	17	
9	0	0	0	0	507	509	2	560	40	17	
10	0	0	0	0	499	511	3	556	40	17	
11	0	0	0	0	488	510	2	531	40	17	
12	0	0	0	0	485	508	1	492	40	17	
13	0	0	0	0	480	507	1	437	40	17	
14	0	0	0	0	486	508	1	374	40	17	
15	0	0	0	0	508	507	1	376	40	17	
0	0	0	0	0	526	508	2	476	40	17	
1	0	0	0	0	536	509	0	691	40	17	
2	0	0	0	0	542	510	0	893	40	17	
3	0	0	0	0	542	511	0	960	40	17	
4	0	0	0	0	537	510	1	978	40	17	
5	0	0	0	0	527	508	1	948	40	17	
6	0	0	0	0	515	511	0	889	40	17	
7	0	0	0	0	512	512	2	790	40	17	
8	0	0	0	0	518	512	3	707	40	17	
9	0	0	0	0	512	510	3	735	40	17	
10	0	0	0	0	501	511	3	764	40	17	
11	0	0	0	0	497	509	2	744	40	17	
12	0	0	0	0	485	509	4	689	40	17	
13	0	0	0	0	481	511	2	647	40	17	
14	0	0	0	0	483	512	3	563	40	17	
15	0	0	0	0	491	513	3	481	40	17	
0	0	0	0	0	512	514	2	483	40	17	
1	0	0	0	0	528	511	3	558	40	17	
2	0	0	0	0	541	512	2	694	40	17	
3	0	0	0	0	547	512	2	820	40	17	
4	0	0	0	0	540	510	2	893	40	17	
5	0	0	0	0	529	509	2	977	40	17	
6	0	0	0	0	521	512	3	983	40	17	
7	0	0	0	0	509	512	2	911	40	17	
8	0	0	0	0	518	511	1	834	40	17	
9	0	0	0	0	517	512	3	780	40	17	
10	0	0	0	0	506	513	2	723	40	17	
11	0	0	0	0	502	511	2	626	40	17	
12	0	0	0	0	496	511	3	505	40	17	
13	0	0	0	0	489	510	3	438	40	17	
14	0	0	0	0	484	508	3	390	40	17	
15	0	0	0	0	484	508	2	377	40	17	
0	0	0	0	0	497	509	3	386	40	17	
1	0	0	0	0	517	509	3	526	40	17	
2	0	0	0	0	533	511	3	761	40	17	
3	0	0	0	0	541	512	3	979	40	17	
4	0	0	0	0	543	510	2	1017	40	17	
5	0	0	0	0	531	510	3	1018	40	17	
6	0	0	0	0	524	510	3	1018	40	17	
7	0	0	0	0	520	511	3	866	40	17	
8	0	0	0	0	510	511	1	715	40	17	
9	0	0	0	0	517	511	2	579	40	17	
10	0	0	0	0	517	512	3	473	40	17	
11	0	0	0	0	509	512	2	354	40	17	
12	0	0	0	0	498	511	2	234	40	17	
13	0	0	0	0	493	508	2	141	40	17	
14	0	0	0	0	486	509	2	50	40	17	
15	0	0	0	0	483	508	2	0	40	17	
0	0	0	0	0	486	508	3	0	40	17	
1	0	0	0	0	504	508	3	0	40	17	
2	0	0	0	0	521	508	2	178	40	17	
3	0	0	0	0	537	509	2	307	40	17	
4	0	0	0	0	541	508	1	455	40	17	
5	0	0	0	0	545	509	2	589	40	17	
6	0	0	0	0	536	510	1	684	40	17	
7	0	0	0	0	522	507	1	664	40	17	
8	0	0	0	0	511	508	3	568	40	17	
9	0	0	0	0	513	509	1	474	40	17	
10	0	0	0	0	513	511	0	408	40	17	
11	0	0	0	0	511	511	0	338	40	17	
12	0	0	0	0	505	512	1	288	40	17	
13	0	0	0	0	499	511	0	216	40	17	
14	0	0	0	0	491	510	2	147	40	17	
15	0	0	0	0	486	509	2	71	40	17	
0	0	0	0	0	480	509	1	24	40	17	
1	0	0	0	0	487	508	2	39	40	17	
2	0	0	0	0	511	509	2	127	40	17	
3	0	0	0	0	528	509	2	217	40	17	
4	0	0	0	0	538	508	2	354	40	17	
5	0	0	0	0	543	506	3	500	40	17	
6	0	0	0	0	538	506	1	539	40	17	
7	0	0	0	0	531	507	0	515	40	17	
8	0	0	0	0	519	507	2	481	40	17	
9	0	0	0	0	513	507	1	429	40	17	
10	0	0	0	0	517	509	0	407	40	17	
11	0	0	0	0	515	511	0	409	40	17	
12	0	0	0	0	511	511	3	400	40	17	
13	0	0	0	0	501	508	1	370	40	17	
14	0	0	0	0	493	511	3	329	40	17	
15	0	0	0	0	485	511	2	267	40	17	
0	0	0	0	0	482	513	3	218	40	17	
1	0	0	0	0	482	512	2	186	40	17	
2	0	0	0	0	499	512	3	187	40	17	
3	0	0	0	0	519	513	3	243	40	17	
4	0	0	0	0	529	511	3	396	40	17	
5	0	0	0	0	537	510	3	572	40	17	
6	0	0	0	0	542	511	1	726	40	17	
7	0	0	0	0	536	508	1	770	40	17	
8	0	0	0	0	529	508	3	803	40	17	
9	0	0	0	0	522	509	1	830	40	17	
10	0	0	0	0	512	509	1	812	40	17	
11	0	0	0	0	512	509	0	780	40	17	
12	0	0	0	0	515	507	1	722	40	17	
13	0	0	0	0	505	507	0	667	40	17	
14	0	0	0	0	498	508	2	591	40	17	
15	0	0	0	0	491	508	2	508	40	17	
0	0	0	0	0	485	507	3	418	40	17	
1	0	0	0	0	483	507	2	355	40	17	
2	0	0	0	0	484	507	3	328	40	17	
3	0	0	0	0	505	509	2	386	40	17	
4	0	0	0	0	521	509	3	523	40	17	
5	0	0	0	0	540	509	2	667	40	17	
6	0	0	0	0	543	510	3	761	40	17	
7	0	0	0	0	544	512	2	799	40	17	
8	0	0	0	0	537	513	2	844	40	17	
9	0	0	0	0	527	512	3	865	40	17	
10	0	0	0	0	517	512	1	869	40	17	
11	0	0	0	0	511	511	1	800	40	17	
12	0	0	0	0	514	511	2	692	40	17	
13	0	0	0	0	512	511	1	673	40	17	
14	0	0	0	0	502	511	1	645	40	17	
15	0	0	0	0	494	513	0	593	40	17	
0	0	0	0	0	488	513	3	516	40	17	
1	0	0	0	0	479	514	0	460	40	17	
2	0	0	0	0	479	514	0	393	40	17	
3	0	0	0	0	490	513	0	332	40	17	
4	0	0	0	0	511	513	3	361	40	17	
5	0	0	0	0	528	511	1	512	40	17	
6	0	0	0	0	539	512	3	766	40	17	
7	0	0	0	0	544	511	2	965	40	17	
8	0	0	0	0	540	510	1	1018	40	17	
9	0	0	0	0	530	508	2	1018	40	17	
10	0	0	0	0	521	509	2	1018	40	17	
11	0	0	0	0	510	509	3	907	40	17	
12	0	0	0	0	515	509	1	821	40	17	
13	0	0	0	0	514	508	3	783	40	17	
14	0	0	0	0	512	510	2	737	40	17	
15	0	0	0	0	499	510	2	646	40	17	
0	0	0	0	0	491	511	3	543	40	17	
1	0	0	0	0	485	507	1	538	40	17	
2	0	0	0	0	483	510	1	543	40	17	
3	0	0	0	0	482	513	0	505	40	17	
4	0	0	0	0	499	512	3	465	40	17	
5	0	0	0	0	518	512	1	519	40	17	
6	0	0	0	0	531	514	1	641	40	17	
7	0	0	0	0	536	514	0	757	40	17	
8	0	0	0	0	544	515	3	921	40	17	
9	0	0	0	0	542	513	0	1018	40	17	
10	0	0	0	0	532	513	1	1018	40	17	
11	0	0	0	0	522	513	1	1017	40	17	
12	0	0	0	0	512	511	3	933	40	17	
13	0	0	0	0	514	510	0	884	40	17	
14	0	0	0	0	516	510	1	820	40	17	
15	0	0	0	0	509	511	0	688	40	17	
0	0	0	0	0	501	509	3	553	40	17	
1	0	0	0	0	489	510	0	411	40	17	
2	0	0	0	0	482	509	0	258	40	17	
3	0	0	0	0	479	509	1	132	40	17	
4	0	0	0	0	484	509	1	58	40	17	
5	0	0	0	0	509	509	1	69	40	17	
6	0	0	0	0	521	509	2	150	40	17	
7	0	0	0	0	539	512	2	202	40	17	
8	0	0	0	0	542	511	2	262	40	17	
9	0	0	0	0	541	510	2	314	40	17	
10	0	0	0	0	536	509	2	300	40	17	
11	0	0	0	0	528	512	2	243	40	17	
12	0	0	0	0	518	512	3	188	40	17	
13	0	0	0	0	516	510	2	185	40	17	
14	0	0	0	0	516	509	3	184	40	17	
15	0	0	0	0	510	512	2	159	40	17	
0	0	0	0	0	505	511	2	110	40	17	
1	0	0	0	0	491	509	1	47	40	17	
2	0	0	0	0	485	508	1	0	40	17	
3	0	0	0	0	483	511	0	0	40	17	
4	0	0	0	0	479	511	3	0	40	17	
5	0	0	0	0	488	511	0	0	40	17	
6	0	0	0	0	512	511	0	0	40	17	
7	0	0	0	0	532	512	0	137	40	17	
8	0	0	0	0	543	513	3	324	40	17	
9	0	0	0	0	548	508	3	515	40	17	
10	0	0	0	0	540	507	3	680	40	17	
11	0	0	0	0	534	507	2	767	40	17	
12	0	0	0	0	524	508	2	818	40	17	
13	0	0	0	0	511	508	2	793	40	17	
14	0	0	0	0	512	507	3	783	40	17	
15	0	0	0	0	511	510	3	793	40	17	
0	0	0	0	0	504	510	2	764	40	17	
1	0	0	0	0	497	510	3	719	40	17	
2	0	0	0	0	495	512	1	675	40	17	
3	0	0	0	0	486	511	1	569	40	17	
4	0	0	0	0	485	509	3	435	40	17	
5	0	0	0	0	483	511	1	313	40	17	
6	0	0	0	0	499	510	0	237	40	17	
7	0	0	0	0	521	510	0	234	40	17	
8	0	0	0	0	533	511	1	394	40	17	
9	0	0	0	0	538	511	0	597	40	17	
10	0	0	0	0	541	511	0	809	40	17	
11	0	0	0	0	540	511	1	894	40	17	
12	0	0	0	0	530	508	1	861	40	17	
13	0	0	0	0	519	508	3	853	40	17	
14	0	0	0	0	512	509	3	835	40	17	
15	0	0	0	0	515	510	2	809	40	17	
0	0	0	0	0	511	510	2	803	40	17	
1	0	0	0	0	501	510	2	799	40	17	
2	0	0	0	0	501	508	3	769	40	17	
3	0	0	0	0	490	508	3	689	40	17	
4	0	0	0	0	480	508	1	579	40	17	
5	0	0	0	0	479	509	3	478	40	17	
6	0	0	0	0	480	510	1	401	40	17	
7	0	0	0	0	505	511	1	394	40	17	
8	0	0	0	0	525	510	2	475	40	17	
9	0	0	0	0	537	510	1	659	40	17	
10	0	0	0	0	542	509	1	839	40	17	
11	0	0	0	0	543	511	1	958	40	17	
12	0	0	0	0	534	510	2	1018	40	17	
13	0	0	0	0	528	509	1	1018	40	17	
14	0	0	0	0	517	510	0	969	40	17	
15	0	0	0	0	518	509	1	869	40	17	
0	0	0	0	0	518	512	3	785	40	17	
1	0	0	0	0	511	511	1	801	40	17	
2	0	0	0	0	503	513	3	820	40	17	
3	0	0	0	0	495	514	2	804	40	17	
4	0	0	0	0	487	511	3	709	40	17	
5	0	0	0	0	483	512	3	551	40	17	
6	0	0	0	0	483	512	2	417	40	17	
7	0	0	0	0	495	512	2	345	40	17	
8	0	0	0	0	512	511	1	389	40	17	
9	0	0	0	0	523	512	3	530	40	17	
10	0	0	0	0	537	514	3	718	40	17	
11	0	0	0	0	542	512	2	799	40	17	
12	0	0	0	0	535	511	2	839	40	17	
13	0	0	0	0	534	510	1	871	40	17	
14	0	0	0	0	527	509	1	825	40	17	
15	0	0	0	0	514	510	0	707	40	17	
0	0	0	0	0	516	508	3	635	40	17	
1	0	0	0	0	517	509	1	601	40	17	
2	0	0	0	0	514	512	0	562	40	17	
3	0	0	0	0	506	512	0	468	40	17	
4	0	0	0	0	496	512	3	356	40	17	
5	0	0	0	0	487	511	1	268	40	17	
6	0	0	0	0	483	511	1	188	40	17	
7	0	0	0	0	477	510	0	113	40	17	
8	0	0	0	0	497	512	2	93	40	17	
9	0	0	0	0	519	511	3	197	40	17	
10	0	0	0	0	532	511	2	355	40	17	
11	0	0	0	0	538	512	2	500	40	17	
12	0	0	0	0	538	512	2	620	40	17	
13	0	0	0	0	533	512	3	704	40	17	
14	0	0	0	0	527	513	3	717	40	17	
15	0	0	0	0	519	513	3	671	40	17	
0	0	0	0	0	510	511	1	601	40	17	
1	0	0	0	0	512	511	2	506	40	17	
2	0	0	0	0	513	511	2	389	40	17	
3	0	0	0	0	507	511	2	269	40	17	
4	0	0	0	0	496	511	3	196	40	17	
5	0	0	0	0	483	510	3	160	40	17	
6	0	0	0	0	480	511	1	127	40	17	
7	0	0	0	0	476	511	1	81	40	17	
8	0	0	0	0	480	512	2	69	40	17	
9	0	0	0	0	499	511	1	141	40	17	
10	0	0	0	0	520	513	1	270	40	17	
11	0	0	0	0	531	512	0	361	40	17	
12	0	0	0	0	537	511	3	402	40	17	
13	0	0	0	0	538	511	0	420	40	17	
14	0	0	0	0	534	511	1	430	40	17	
15	0	0	0	0	524	511	0	383	40	17	
0	0	0	0	0	512	510	1	316	40	17	
1	0	0	0	0	514	510	0	245	40	17	
2	0	0	0	0	516	509	2	231	40	17	
3	0	0	0	0	515	508	2	228	40	17	
4	0	0	0	0	505	509	3	194	40	17	
5	0	0	0	0	495	509	2	170	40	17	
6	0	0	0	0	488	509	3	135	40	17	
7	0	0	0	0	487	509	2	67	40	17	
8	0	0	0	0	487	508	3	14	40	17	
9	0	0	0	0	497	507	2	0	40	17	
10	0	0	0	0	520	507	2	0	40	17	
11	0	0	0	0	539	508	2	66	40	17	
12	0	0	0	0	550	506	1	156	40	17	
13	0	0	0	0	554	506	2	256	40	17	
14	0	0	0	0	553	508	2	341	40	17	
15	0	0	0	0	551	507	2	378	40	17	
0	0	0	0	0	541	505	2	413	40	17	
1	0	0	0	0	526	507	3	475	40	17	
2	0	0	0	0	527	505	2	532	40	17	
3	0	0	0	0	526	508	2	531	40	17	
4	0	0	0	0	517	509	3	482	40	17	
5	0	0	0	0	507	509	2	463	40	17	
6	0	0	0	0	495	509	2	387	40	17	
7	0	0	0	0	485	509	2	290	40	17	
8	0	0	0	0	480	509	3	195	40	17	
9	0	0	0	0	475	509	3	106	40	17	
10	0	0	0	0	492	511	2	66	40	17	
11	0	0	0	0	515	512	1	81	40	17	
12	0	0	0	0	526	510	2	172	40	17	
13	0	0	0	0	538	508	1	245	40	17	
14	0	0	0	0	538	508	1	298	40	17	
15	0	0	0	0	535	510	0	318	40	17	
0	0	0	0	0	526	510	3	329	40	17	
1	0	0	0	0	513	511	0	327	40	17	
2	0	0	0	0	503	511	1	284	40	17	
3	0	0	0	0	505	510	0	240	40	17	
4	0	0	0	0	507	509	2	225	40	17	
5	0	0	0	0	499	508	0	220	40	17	
6	0	0	0	0	496	509	0	212	40	17	
7	0	0	0	0	487	510	0	188	40	17	
8	0	0	0	0	481	511	3	128	40	17	
9	0	0	0	0	476	510	0	83	40	17	
10	0	0	0	0	479	510	0	59	40	17	
11	0	0	0	0	499	511	0	85	40	17	
12	0	0	0	0	519	511	3	143	40	17	
13	0	0	0	0	535	511	0	285	40	17	
14	0	0	0	0	538	509	0	454	40	17	
15	0	0	0	0	539	509	0	549	40	17	
0	0	0	0	0	535	509	3	639	40	17	
1	0	0	0	0	524	508	0	700	40	17	
2	0	0	0	0	512	510	0	696	40	17	
3	0	0	0	0	510	511	0	649	40	17	
4	0	0	0	0	511	512	3	615	40	17	
5	0	0	0	0	511	511	0	652	40	17	
6	0	0	0	0	506	512	1	631	40	17	
7	0	0	0	0	498	510	0	560	40	17	
8	0	0	0	0	488	510	2	469	40	17	
9	0	0	0	0	486	509	0	413	40	17	
10	0	0	0	0	482	510	1	367	40	17	
11	0	0	0	0	492	511	0	353	40	17	
12	0	0	0	0	516	512	3	462	40	17	
13	0	0	0	0	530	511	0	688	40	17	
14	0	0	0	0	543	513	1	954	40	17	
15	0	0	0	0	547	513	1	1018	40	17	
0	0	0	0	0	539	512	3	1019	40	17	
1	0	0	0	0	532	509	0	1018	40	17	
2	0	0	0	0	519	509	1	1018	40	17	
3	0	0	0	0	512	508	0	1017	40	17	
4	0	0	0	0	512	506	3	1018	40	17	
5	0	0	0	0	511	506	1	859	40	17	
6	0	0	0	0	505	508	0	757	40	17	
7	0	0	0	0	502	509	2	648	40	17	
8	0	0	0	0	495	509	1	529	40	17	
9	0	0	0	0	487	509	2	439	40	17	
10	0	0	0	0	481	510	3	370	40	17	
11	0	0	0	0	486	511	2	324	40	17	
12	0	0	0	0	504	511	3	320	40	17	
13	0	0	0	0	523	512	3	431	40	17	
14	0	0	0	0	538	515	1	592	40	17	
15	0	0	0	0	543	515	1	728	40	17	
0	0	0	0	0	542	513	2	853	40	17	
1	0	0	0	0	538	513	1	905	40	17	
2	0	0	0	0	527	515	1	911	40	17	
3	0	0	0	0	519	514	0	852	40	17	
4	0	0	0	0	510	512	3	797	40	17	
5	0	0	0	0	515	509	0	808	40	17	
6	0	0	0	0	515	510	3	810	40	17	
7	0	0	0	0	510	511	2	734	40	17	
8	0	0	0	0	500	510	3	647	40	17	
9	0	0	0	0	489	509	2	579	40	17	
10	0	0	0	0	483	508	2	494	40	17	
11	0	0	0	0	480	510	2	404	40	17	
12	0	0	0	0	487	512	3	339	40	17	
13	0	0	0	0	507	512	3	374	40	17	
14	0	0	0	0	521	514	3	503	40	17	
15	0	0	0	0	533	513	3	588	40	17	
0	0	0	0	0	540	512	3	681	40	17	
1	0	0	0	0	537	510	3	804	40	17	
2	0	0	0	0	537	508	2	850	40	17	
3	0	0	0	0	528	507	1	799	40	17	
4	0	0	0	0	517	508	2	719	40	17	
5	0	0	0	0	514	508	1	636	40	17	
6	0	0	0	0	515	508	1	592	40	17	
7	0	0	0	0	512	506	0	578	40	17	
8	0	0	0	0	503	508	3	574	40	17	
9	0	0	0	0	496	508	0	585	40	17	
10	0	0	0	0	488	506	1	561	40	17	
11	0	0	0	0	484	509	1	483	40	17	
12	0	0	0	0	479	508	3	408	40	17	
13	0	0	0	0	487	508	3	421	40	17	
14	0	0	0	0	510	510	2	543	40	17	
15	0	0	0	0	527	509	2	632	40	17	
0	0	0	0	0	534	510	2	726	40	17	
1	0	0	0	0	544	511	3	844	40	17	
2	0	0	0	0	542	511	3	945	40	17	
3	0	0	0	0	533	511	2	1017	40	17	
4	0	0	0	0	526	510	3	1017	40	17	
5	0	0	0	0	520	511	3	1018	40	17	
6	0	0	0	0	518	511	2	978	40	17	
7	0	0	0	0	520	509	1	944	40	17	
8	0	0	0	0	510	507	1	917	40	17	
9	0	0	0	0	503	508	1	834	40	17	
10	0	0	0	0	495	511	1	724	40	17	
11	0	0	0	0	489	511	0	616	40	17	
12	0	0	0	0	482	513	3	524	40	17	
13	0	0	0	0	481	511	0	488	40	17	
14	0	0	0	0	496	511	1	460	40	17	
15	0	0	0	0	520	511	1	446	40	17	
0	0	0	0	0	535	509	3	500	40	17	
1	0	0	0	0	543	511	1	551	40	17	
2	0	0	0	0	539	511	2	626	40	17	
3	0	0	0	0	532	512	2	645	40	17	
4	0	0	0	0	525	509	2	621	40	17	
5	0	0	0	0	517	510	2	612	40	17	
6	0	0	0	0	511	509	3	587	40	17	
7	0	0	0	0	514	510	2	582	40	17	
8	0	0	0	0	511	509	3	562	40	17	
9	0	0	0	0	503	511	3	558	40	17	
10	0	0	0	0	497	510	3	538	40	17	
11	0	0	0	0	488	509	1	522	40	17	
12	0	0	0	0	482	511	1	455	40	17	
13	0	0	0	0	474	511	1	387	40	17	
14	0	0	0	0	489	513	1	343	40	17	
15	0	0	0	0	512	513	0	350	40	17	
0	0	0	0	0	531	512	3	453	40	17	
1	0	0	0	0	546	511	0	566	40	17	
2	0	0	0	0	542	511	0	657	40	17	
3	0	0	0	0	542	512	0	695	40	17	
4	0	0	0	0	536	511	3	695	40	17	
5	0	0	0	0	527	510	1	675	40	17	
6	0	0	0	0	518	511	2	645	40	17	
7	0	0	0	0	515	509	2	550	40	17	
8	0	0	0	0	513	509	1	512	40	17	
9	0	0	0	0	511	508	3	481	40	17	
10	0	0	0	0	503	509	2	416	40	17	
11	0	0	0	0	494	510	2	316	40	17	
12	0	0	0	0	485	508	1	217	40	17	
13	0	0	0	0	481	508	2	139	40	17	
14	0	0	0	0	479	509	3	72	40	17	
15	0	0	0	0	491	511	2	42	40	17	
0	0	0	0	0	514	512	1	94	40	17	
1	0	0	0	0	531	513	2	188	40	17	
2	0	0	0	0	539	514	2	295	40	17	
3	0	0	0	0	540	513	2	372	40	17	
4	0	0	0	0	540	513	3	413	40	17	
5	0	0	0	0	529	512	3	457	40	17	
6	0	0	0	0	520	512	2	442	40	17	
7	0	0	0	0	513	512	2	355	40	17	
8	0	0	0	0	513	511	3	282	40	17	
9	0	0	0	0	511	509	2	221	40	17	
10	0	0	0	0	507	508	3	178	40	17	
11	0	0	0	0	500	511	2	121	40	17	
12	0	0	0	0	492	510	3	56	40	17	
13	0	0	0	0	483	509	2	68	40	17	
14	0	0	0	0	480	512	2	120	40	17	
15	0	0	0	0	483	511	2	123	40	17	
0	0	0	0	0	502	512	3	166	40	17	
1	0	0	0	0	523	510	3	331	40	17	
2	0	0	0	0	540	512	2	537	40	17	
3	0	0	0	0	543	511	3	666	40	17	
4	0	0	0	0	544	510	1	699	40	17	
5	0	0	0	0	536	511	3	725	40	17	
6	0	0	0	0	525	511	3	733	40	17	
7	0	0	0	0	517	509	3	720	40	17	
8	0	0	0	0	510	508	2	713	40	17	
9	0	0	0	0	513	507	2	720	40	17	
10	0	0	0	0	514	508	3	711	40	17	
11	0	0	0	0	504	509	3	640	40	17	
12	0	0	0	0	499	509	3	565	40	17	
13	0	0	0	0	490	510	3	508	40	17	
14	0	0	0	0	487	510	2	495	40	17	
15	0	0	0	0	484	512	1	434	40	17	
0	0	0	0	0	490	511	3	367	40	17	
1	0	0	0	0	509	510	1	376	40	17	
2	0	0	0	0	522	509	1	485	40	17	
3	0	0	0	0	538	509	0	653	40	17	
4	0	0	0	0	543	511	3	803	40	17	
5	0	0	0	0	540	512	0	965	40	17	
6	0	0	0	0	534	511	1	1018	40	17	
7	0	0	0	0	527	509	1	1018	40	17	
8	0	0	0	0	517	508	3	930	40	17	
9	0	0	0	0	515	509	1	849	40	17	
10	0	0	0	0	517	510	3	816	40	17	
11	0	0	0	0	515	511	3	787	40	17	
12	0	0	0	0	504	511	3	761	40	17	
13	0	0	0	0	494	508	2	726	40	17	
14	0	0	0	0	483	509	2	638	40	17	
15	0	0	0	0	479	511	2	502	40	17	
0	0	0	0	0	480	510	1	392	40	17	
1	0	0	0	0	488	508	3	339	40	17	
2	0	0	0	0	511	510	2	359	40	17	
3	0	0	0	0	527	510	2	426	40	17	
4	0	0	0	0	541	511	3	547	40	17	
5	0	0	0	0	543	511	3	699	40	17	
6	0	0	0	0	540	512	1	861	40	17	
7	0	0	0	0	532	510	0	933	40	17	
8	0	0	0	0	525	507	1	912	40	17	
9	0	0	0	0	516	508	1	864	40	17	
10	0	0	0	0	515	508	1	798	40	17	
11	0	0	0	0	513	507	0	713	40	17	
12	0	0	0	0	506	508	1	638	40	17	
13	0	0	0	0	497	509	1	572	40	17	
14	0	0	0	0	487	509	1	531	40	17	
15	0	0	0	0	488	510	0	487	40	17	
0	0	0	0	0	483	511	3	456	40	17	
1	0	0	0	0	485	510	2	404	40	17	
2	0	0	0	0	498	511	3	343	40	17	
3	0	0	0	0	516	511	2	395	40	17	
4	0	0	0	0	529	510	3	535	40	17	
5	0	0	0	0	536	508	2	681	40	17	
6	0	0	0	0	539	509	3	770	40	17	
7	0	0	0	0	536	510	3	765	40	17	
8	0	0	0	0	526	509	3	724	40	17	
9	0	0	0	0	521	508	3	724	40	17	
10	0	0	0	0	515	507	1	697	40	17	
11	0	0	0	0	513	507	0	656	40	17	
12	0	0	0	0	513	508	3	611	40	17	
13	0	0	0	0	506	508	1	594	40	17	
14	0	0	0	0	503	509	1	549	40	17	
15	0	0	0	0	492	508	0	507	40	17	
0	0	0	0	0	484	509	1	422	40	17	
1	0	0	0	0	482	509	1	328	40	17	
2	0	0	0	0	489	510	1	258	40	17	
3	0	0	0	0	507	510	0	240	40	17	
4	0	0	0	0	529	509	2	275	40	17	
5	0	0	0	0	541	509	1	411	40	17	
6	0	0	0	0	540	510	0	562	40	17	
7	0	0	0	0	537	512	0	622	40	17	
8	0	0	0	0	534	510	3	673	40	17	
9	0	0	0	0	523	510	0	681	40	17	
10	0	0	0	0	512	508	0	617	40	17	
11	0	0	0	0	512	508	0	515	40	17	
12	0	0	0	0	514	509	2	436	40	17	
13	0	0	0	0	515	508	1	414	40	17	
14	0	0	0	0	506	509	0	382	40	17	
15	0	0	0	0	495	510	0	312	40	17	
0	0	0	0	0	484	507	1	242	40	17	
1	0	0	0	0	481	507	1	204	40	17	
2	0	0	0	0	480	508	1	131	40	17	
3	0	0	0	0	490	509	0	67	40	17	
4	0	0	0	0	516	508	3	63	40	17	
5	0	0	0	0	530	508	0	115	40	17	
6	0	0	0	0	542	508	1	219	40	17	
7	0	0	0	0	545	508	2	271	40	17	
8	0	0	0	0	540	508	3	279	40	17	
9	0	0	0	0	535	508	3	278	40	17	
10	0	0	0	0	524	508	2	282	40	17	
11	0	0	0	0	515	509	2	251	40	17	
12	0	0	0	0	511	508	3	245	40	17	
13	0	0	0	0	511	508	2	259	40	17	
14	0	0	0	0	508	508	3	266	40	17	
15	0	0	0	0	500	509	2	216	40	17	
0	0	0	0	0	494	508	1	148	40	17	
1	0	0	0	0	483	509	2	103	40	17	
2	0	0	0	0	479	512	2	57	40	17	
3	0	0	0	0	481	513	2	19	40	17	
4	0	0	0	0	499	513	1	23	40	17	
5	0	0	0	0	519	511	3	66	40	17	
6	0	0	0	0	534	511	2	127	40	17	
7	0	0	0	0	542	512	2	169	40	17	
8	0	0	0	0	541	510	1	252	40	17	
9	0	0	0	0	538	508	2	294	40	17	
10	0	0	0	0	528	508	3	325	40	17	
11	0	0	0	0	519	508	2	338	40	17	
12	0	0	0	0	514	509	1	330	40	17	
13	0	0	0	0	518	510	2	309	40	17	
14	0	0	0	0	518	508	2	297	40	17	
15	0	0	0	0	510	510	2	247	40	17	
0	0	0	0	0	500	510	3	212	40	17	
1	0	0	0	0	487	511	2	168	40	17	
2	0	0	0	0	480	510	2	90	40	17	
3	0	0	0	0	482	512	2	5	40	17	
4	0	0	0	0	483	511	1	0	40	17	
5	0	0	0	0	506	512	2	0	40	17	
6	0	0	0	0	529	511	3	104	40	17	
7	0	0	0	0	543	511	2	204	40	17	
8	0	0	0	0	547	512	3	305	40	17	
9	0	0	0	0	545	512	2	435	40	17	
10	0	0	0	0	536	511	2	515	40	17	
11	0	0	0	0	526	513	2	565	40	17	
12	0	0	0	0	515	512	3	559	40	17	
13	0	0	0	0	514	511	2	574	40	17	
14	0	0	0	0	515	510	3	556	40	17	
15	0	0	0	0	512	508	2	547	40	17	
0	0	0	0	0	505	507	2	513	40	17	
1	0	0	0	0	495	510	2	472	40	17	
2	0	0	0	0	487	511	1	383	40	17	
3	0	0	0	0	484	512	1	298	40	17	
4	0	0	0	0	481	513	1	262	40	17	
5	0	0	0	0	489	513	2	309	40	17	
6	0	0	0	0	513	515	1	423	40	17	
7	0	0	0	0	531	513	0	493	40	17	
8	0	0	0	0	545	513	3	571	40	17	
9	0	0	0	0	546	510	1	737	40	17	
10	0	0	0	0	539	509	1	872	40	17	
11	0	0	0	0	531	512	0	961	40	17	
12	0	0	0	0	523	510	3	944	40	17	
13	0	0	0	0	509	509	1	914	40	17	
14	0	0	0	0	515	510	3	870	40	17	
15	0	0	0	0	514	508	2	834	40	17	
0	0	0	0	0	507	507	0	759	40	17	
1	0	0	0	0	506	507	2	679	40	17	
2	0	0	0	0	498	507	3	583	40	17	
3	0	0	0	0	489	509	2	498	40	17	
4	0	0	0	0	482	509	3	434	40	17	
5	0	0	0	0	478	510	2	429	40	17	
6	0	0	0	0	496	511	2	463	40	17	
7	0	0	0	0	519	513	2	519	40	17	
8	0	0	0	0	536	510	3	643	40	17	
9	0	0	0	0	539	512	1	739	40	17	
10	0	0	0	0	540	514	2	836	40	17	
11	0	0	0	0	535	514	2	868	40	17	
12	0	0	0	0	530	513	1	829	40	17	
13	0	0	0	0	519	512	3	785	40	17	
14	0	0	0	0	511	514	3	766	40	17	
15	0	0	0	0	512	512	2	726	40	17	
0	0	0	0	0	511	512	4	691	40	17	
1	0	0	0	0	503	512	1	670	40	17	
2	0	0	0	0	497	510	1	611	40	17	
3	0	0	0	0	486	513	1	546	40	17	
4	0	0	0	0	475	513	1	531	40	17	
5	0	0	0	0	479	512	1	498	40	17	
6	0	0	0	0	487	514	3	487	40	17	
7	0	0	0	0	509	513	2	552	40	17	
8	0	0	0	0	524	512	3	705	40	17	
9	0	0	0	0	539	510	2	897	40	17	
10	0	0	0	0	547	509	3	1018	40	17	
11	0	0	0	0	547	510	2	1017	40	17	
12	0	0	0	0	537	509	3	1019	40	17	
13	0	0	0	0	527	510	2	1018	40	17	
14	0	0	0	0	513	509	3	831	40	17	
15	0	0	0	0	514	509	2	670	40	17	
0	0	0	0	0	515	509	3	540	40	17	
1	0	0	0	0	511	508	3	493	40	17	
2	0	0	0	0	506	507	3	455	40	17	
3	0	0	0	0	496	508	2	379	40	17	
4	0	0	0	0	484	507	1	301	40	17	
5	0	0	0	0	483	508	2	242	40	17	
6	0	0	0	0	479	508	1	200	40	17	
7	0	0	0	0	492	512	1	169	40	17	
8	0	0	0	0	515	512	3	191	40	17	
9	0	0	0	0	526	510	1	311	40	17	
10	0	0	0	0	539	512	0	476	40	17	
11	0	0	0	0	543	511	0	577	40	17	
12	0	0	0	0	542	510	2	619	40	17	
13	0	0	0	0	529	511	1	587	40	17	
14	0	0	0	0	518	510	2	505	40	17	
15	0	0	0	0	509	511	2	395	40	17	
0	0	0	0	0	514	511	3	351	40	17	
1	0	0	0	0	517	510	3	395	40	17	
2	0	0	0	0	511	510	2	385	40	17	
3	0	0	0	0	503	510	2	321	40	17	
4	0	0	0	0	492	509	3	248	40	17	
5	0	0	0	0	485	510	2	221	40	17	
6	0	0	0	0	479	510	2	181	40	17	
7	0	0	0	0	477	509	2	142	40	17	
8	0	0	0	0	496	508	1	160	40	17	
9	0	0	0	0	519	508	1	236	40	17	
10	0	0	0	0	536	508	1	416	40	17	
11	0	0	0	0	540	507	0	561	40	17	
12	0	0	0	0	544	507	3	688	40	17	
13	0	0	0	0	538	508	1	748	40	17	
14	0	0	0	0	527	509	0	758	40	17	
15	0	0	0	0	514	510	0	697	40	17	
0	0	0	0	0	514	510	3	613	40	17	
1	0	0	0	0	517	511	0	537	40	17	
2	0	0	0	0	518	511	0	497	40	17	
3	0	0	0	0	507	512	0	440	40	17	
4	0	0	0	0	496	512	3	385	40	17	
5	0	0	0	0	490	511	0	325	40	17	
6	0	0	0	0	486	511	0	235	40	17	
7	0	0	0	0	483	511	0	160	40	17	
8	0	0	0	0	489	510	3	109	40	17	
9	0	0	0	0	509	510	0	140	40	17	
10	0	0	0	0	529	510	1	219	40	17	
11	0	0	0	0	540	511	0	303	40	17	
12	0	0	0	0	541	510	3	410	40	17	
13	0	0	0	0	539	511	1	506	40	17	
14	0	0	0	0	537	510	3	643	40	17	
15	0	0	0	0	522	510	2	711	40	17	
0	0	0	0	0	512	510	2	750	40	17	
1	0	0	0	0	516	510	2	758	40	17	
2	0	0	0	0	512	512	3	767	40	17	
3	0	0	0	0	511	512	3	732	40	17	
4	0	0	0	0	503	510	3	701	40	17	
5	0	0	0	0	494	510	2	668	40	17	
6	0	0	0	0	486	511	1	615	40	17	
7	0	0	0	0	481	511	1	535	40	17	
8	0	0	0	0	480	510	2	481	40	17	
9	0	0	0	0	490	509	1	472	40	17	
10	0	0	0	0	513	509	0	575	40	17	
11	0	0	0	0	533	509	0	705	40	17	
12	0	0	0	0	541	509	4	829	40	17	
13	0	0	0	0	542	508	0	990	40	17	
14	0	0	0	0	539	508	1	1018	40	17	
15	0	0	0	0	530	509	2	1018	40	17	
0	0	0	0	0	519	509	3	1019	40	17	
1	0	0	0	0	512	509	3	1018	40	17	
2	0	0	0	0	515	510	3	1018	40	17	
3	0	0	0	0	512	511	2	932	40	17	
4	0	0	0	0	511	512	3	924	40	17	
5	0	0	0	0	503	510	2	870	40	17	
6	0	0	0	0	496	511	3	777	40	17	
7	0	0	0	0	490	511	3	647	40	17	
8	0	0	0	0	483	513	2	532	40	17	
9	0	0	0	0	484	512	2	495	40	17	
10	0	0	0	0	497	512	1	477	40	17	
11	0	0	0	0	518	511	1	484	40	17	
12	0	0	0	0	536	510	3	583	40	17	
13	0	0	0	0	542	510	1	694	40	17	
14	0	0	0	0	543	511	0	803	40	17	
15	0	0	0	0	538	510	0	848	40	17	
0	0	0	0	0	529	511	2	813	40	17	
1	0	0	0	0	521	513	1	791	40	17	
2	0	0	0	0	514	513	3	755	40	17	
3	0	0	0	0	517	513	2	740	40	17	
4	0	0	0	0	511	511	3	718	40	17	
5	0	0	0	0	505	508	3	675	40	17	
6	0	0	0	0	497	509	3	587	40	17	
7	0	0	0	0	482	509	2	489	40	17	
8	0	0	0	0	480	508	1	388	40	17	
9	0	0	0	0	480	508	2	315	40	17	
10	0	0	0	0	484	510	3	294	40	17	
11	0	0	0	0	507	512	3	335	40	17	
12	0	0	0	0	526	512	3	478	40	17	
13	0	0	0	0	536	511	2	674	40	17	
14	0	0	0	0	540	510	2	847	40	17	
15	0	0	0	0	544	510	1	959	40	17	
0	0	0	0	0	535	507	2	1019	40	17	
1	0	0	0	0	522	507	2	1018	40	17	
2	0	0	0	0	512	508	1	1018	40	17	
3	0	0	0	0	513	508	0	902	40	17	
4	0	0	0	0	519	510	3	786	40	17	
5	0	0	0	0	512	511	0	739	40	17	
6	0	0	0	0	501	511	0	691	40	17	
7	0	0	0	0	494	510	0	600	40	17	
8	0	0	0	0	484	508	1	489	40	17	
9	0	0	0	0	481	509	1	401	40	17	
10	0	0	0	0	481	510	2	317	40	17	
11	0	0	0	0	492	512	3	283	40	17	
12	0	0	0	0	519	510	3	325	40	17	
13	0	0	0	0	531	508	3	433	40	17	
14	0	0	0	0	542	509	2	583	40	17	
15	0	0	0	0	545	508	2	712	40	17	
0	0	0	0	0	541	510	3	846	40	17	
1	0	0	0	0	532	507	2	951	40	17	
2	0	0	0	0	526	508	3	927	40	17	
3	0	0	0	0	516	510	3	831	40	17	
4	0	0	0	0	515	509	3	747	40	17	
5	0	0	0	0	517	510	3	660	40	17	
6	0	0	0	0	508	512	1	552	40	17	
7	0	0	0	0	494	511	1	433	40	17	
8	0	0	0	0	487	512	2	311	40	17	
9	0	0	0	0	483	509	1	252	40	17	
10	0	0	0	0	478	508	1	199	40	17	
11	0	0	0	0	482	512	0	169	40	17	
12	0	0	0	0	499	513	2	173	40	17	
13	0	0	0	0	522	512	0	252	40	17	
14	0	0	0	0	540	512	0	377	40	17	
15	0	0	0	0	544	511	1	534	40	17	
0	0	0	0	0	545	511	3	697	40	17	
1	0	0	0	0	539	510	3	792	40	17	
2	0	0	0	0	527	511	3	829	40	17	
3	0	0	0	0	519	511	2	764	40	17	
4	0	0	0	0	509	510	4	697	40	17	
5	0	0	0	0	512	508	2	721	40	17	
6	0	0	0	0	510	508	3	717	40	17	
7	0	0	0	0	504	511	3	643	40	17	
8	0	0	0	0	499	512	2	568	40	17	
9	0	0	0	0	483	510	3	457	40	17	
10	0	0	0	0	483	510	1	365	40	17	
11	0	0	0	0	482	509	1	286	40	17	
12	0	0	0	0	492	511	3	202	40	17	
13	0	0	0	0	512	509	1	275	40	17	
14	0	0	0	0	528	509	1	446	40	17	
15	0	0	0	0	543	510	0	650	40	17	
0	0	0	0	0	548	508	3	757	40	17	
1	0	0	0	0	544	508	1	841	40	17	
2	0	0	0	0	535	508	1	908	40	17	
3	0	0	0	0	524	508	1	896	40	17	
4	0	0	0	0	511	508	2	849	40	17	
5	0	0	0	0	514	506	3	790	40	17	
6	0	0	0	0	513	509	2	707	40	17	
7	0	0	0	0	508	508	2	624	40	17	
8	0	0	0	0	501	508	2	568	40	17	
9	0	0	0	0	493	508	3	519	40	17	
10	0	0	0	0	483	508	2	424	40	17	
11	0	0	0	0	476	508	3	309	40	17	
