# OpenSignals Text File Format. Version 1
# {"0C:43:14:1C:2A:02": {"position": 0, "device": "bitalino_rev", "device name": "0C:43:14:1C:2A:02", "device connection": "BTH0C:43:14:1C:2A:02", "sampling rate": 1000, "resolution": [4, 1, 1, 1, 1, 10, 10, 10, 10, 6, 6], "firmware version": 1282, "comments": "", "keywords": "", "mode": 0, "sync interval": 2, "date": "2026-4-17", "time": "12:23:38.467", "channels": [1, 2, 3, 4, 5, 6], "sensor": ["RAW", "RAW", "RAW", "RAW", "RAW", "RAW"], "label": ["A1", "A2", "A3", "A4", "A5", "A6"], "column": ["nSeq", "I1", "I2", "O1", "O2", "A1", "A2", "A3", "A4", "A5", "A6"], "special": [{}, {}, {}, {}, {}, {}], "digital IO": [0, 0, 1, 1]}}
# EndOfHeader
0	0	0	0	0	515	513	2	1018	40	20	
1	0	0	0	0	513	513	2	1018	40	20	
2	0	0	0	0	514	515	1	1018	40	20	
3	0	0	0	0	515	512	2	1018	40	20	
4	0	0	0	0	518	511	3	1019	40	20	
5	0	0	0	0	520	505	1	1018	40	20	
6	0	0	0	0	521	503	0	0	40	20	
7	0	0	0	0	519	499	2	0	40	20	
8	0	0	0	0	518	499	1	0	40	20	
9	0	0	0	0	512	503	0	0	40	20	
10	0	0	0	0	511	508	2	0	40	20	
11	0	0	0	0	505	514	2	0	40	20	
12	0	0	0	0	504	516	3	0	40	20	
13	0	0	0	0	504	517	3	947	40	20	
14	0	0	0	0	505	518	3	1018	40	20	
15	0	0	0	0	511	515	1	1018	40	20	
0	0	0	0	0	514	511	3	1019	40	20	
1	0	0	0	0	513	510	2	1018	40	20	
2	0	0	0	0	510	512	1	1018	40	20	
3	0	0	0	0	510	514	0	1018	40	20	
4	0	0	0	0	513	511	1	1018	40	20	
5	0	0	0	0	515	508	3	1018	40	20	
6	0	0	0	0	520	503	1	597	40	20	
7	0	0	0	0	521	499	2	0	40	20	
8	0	0	0	0	526	497	1	0	40	20	
9	0	0	0	0	519	500	1	0	40	20	
10	0	0	0	0	512	506	2	0	40	20	
11	0	0	0	0	508	512	2	0	40	20	
12	0	0	0	0	504	516	1	0	40	20	
13	0	0	0	0	501	519	0	0	40	20	
14	0	0	0	0	504	521	3	973	40	20	
15	0	0	0	0	506	523	3	1018	40	20	
0	0	0	0	0	509	517	3	1018	40	20	
1	0	0	0	0	513	511	0	1019	40	20	
2	0	0	0	0	512	514	2	1018	40	20	
3	0	0	0	0	511	515	1	1018	40	20	
4	0	0	0	0	513	514	3	1019	40	20	
5	0	0	0	0	516	510	3	1018	40	20	
6	0	0	0	0	515	507	2	270	40	20	
7	0	0	0	0	522	504	0	0	40	20	
8	0	0	0	0	522	499	1	0	40	20	
9	0	0	0	0	519	499	2	0	40	20	
10	0	0	0	0	516	502	0	0	40	20	
11	0	0	0	0	508	508	0	0	40	20	
12	0	0	0	0	506	514	3	0	40	20	
13	0	0	0	0	506	515	2	0	40	20	
14	0	0	0	0	508	521	0	0	40	20	
15	0	0	0	0	510	522	3	1018	40	20	
0	0	0	0	0	511	519	3	1017	40	20	
1	0	0	0	0	508	515	1	1018	40	20	
2	0	0	0	0	509	513	1	1018	40	20	
3	0	0	0	0	508	512	2	1018	40	20	
4	0	0	0	0	513	514	2	1019	40	20	
5	0	0	0	0	514	510	1	1019	40	20	
6	0	0	0	0	518	508	0	1018	40	20	
7	0	0	0	0	518	505	2	316	40	20	
8	0	0	0	0	518	501	3	0	40	20	
9	0	0	0	0	520	498	1	0	40	20	
10	0	0	0	0	516	498	1	0	40	20	
11	0	0	0	0	513	503	1	0	40	20	
12	0	0	0	0	511	510	3	0	40	20	
13	0	0	0	0	506	514	1	0	40	20	
14	0	0	0	0	507	517	0	0	40	20	
15	0	0	0	0	502	519	2	854	40	20	
0	0	0	0	0	507	520	3	1018	40	20	
1	0	0	0	0	510	517	2	1018	40	20	
2	0	0	0	0	511	515	1	1018	40	20	
3	0	0	0	0	511	514	2	1018	40	20	
4	0	0	0	0	511	514	3	1019	40	20	
5	0	0	0	0	515	512	2	1018	40	20	
6	0	0	0	0	515	511	0	1018	40	20	
7	0	0	0	0	516	509	1	1017	40	20	
8	0	0	0	0	519	504	1	362	40	20	
9	0	0	0	0	519	501	2	0	40	20	
10	0	0	0	0	523	500	0	0	40	20	
11	0	0	0	0	518	499	2	0	40	20	
12	0	0	0	0	513	503	1	0	40	20	
13	0	0	0	0	508	509	2	0	40	20	
14	0	0	0	0	504	515	0	0	40	20	
15	0	0	0	0	502	518	2	0	40	20	
0	0	0	0	0	506	519	2	1017	40	20	
1	0	0	0	0	509	521	3	1018	40	20	
2	0	0	0	0	509	519	1	1018	40	20	
3	0	0	0	0	514	515	2	1018	40	20	
4	0	0	0	0	512	515	2	1018	40	20	
5	0	0	0	0	512	515	2	1018	40	20	
6	0	0	0	0	511	515	0	1018	40	20	
7	0	0	0	0	516	513	2	1018	40	20	
8	0	0	0	0	518	507	2	395	40	20	
9	0	0	0	0	519	501	0	0	40	20	
10	0	0	0	0	521	499	1	0	40	20	
11	0	0	0	0	519	498	2	0	40	20	
12	0	0	0	0	515	501	3	0	40	20	
13	0	0	0	0	509	505	1	0	40	20	
14	0	0	0	0	504	511	0	0	40	20	
15	0	0	0	0	504	516	2	0	40	20	
0	0	0	0	0	505	515	3	0	40	20	
1	0	0	0	0	508	518	1	1018	40	20	
2	0	0	0	0	509	519	3	1018	40	20	
3	0	0	0	0	512	516	2	1018	40	20	
4	0	0	0	0	512	513	2	1019	40	20	
5	0	0	0	0	511	512	1	1018	40	20	
6	0	0	0	0	512	514	3	1018	40	20	
7	0	0	0	0	512	513	2	1018	40	20	
8	0	0	0	0	515	511	2	1019	40	20	
9	0	0	0	0	518	507	0	1018	40	20	
10	0	0	0	0	526	504	2	40	40	20	
11	0	0	0	0	528	499	1	0	40	20	
12	0	0	0	0	523	497	3	0	40	20	
13	0	0	0	0	511	499	2	0	40	20	
14	0	0	0	0	508	507	2	0	40	20	
15	0	0	0	0	500	513	1	0	40	20	
0	0	0	0	0	503	514	1	0	40	20	
1	0	0	0	0	505	516	3	0	40	20	
2	0	0	0	0	508	519	1	1018	40	20	
3	0	0	0	0	509	519	1	1018	40	20	
4	0	0	0	0	514	517	4	1019	40	20	
5	0	0	0	0	512	514	2	1018	40	20	
6	0	0	0	0	513	515	1	1018	40	20	
7	0	0	0	0	515	513	2	1018	40	20	
8	0	0	0	0	514	513	1	1018	40	20	
9	0	0	0	0	516	509	0	275	40	20	
10	0	0	0	0	517	505	2	0	40	20	
11	0	0	0	0	519	504	2	0	40	20	
12	0	0	0	0	523	501	2	0	40	20	
13	0	0	0	0	517	502	0	0	40	20	
14	0	0	0	0	515	505	3	0	40	20	
15	0	0	0	0	510	511	0	0	40	20	
0	0	0	0	0	507	516	3	0	40	20	
1	0	0	0	0	503	517	2	0	40	20	
2	0	0	0	0	504	519	2	0	40	20	
3	0	0	0	0	508	520	1	1018	40	20	
4	0	0	0	0	510	518	3	1019	40	20	
5	0	0	0	0	512	515	3	1018	40	20	
6	0	0	0	0	510	516	0	1018	40	20	
7	0	0	0	0	515	516	0	1018	40	20	
8	0	0	0	0	514	513	3	1018	40	20	
9	0	0	0	0	515	508	1	487	40	20	
10	0	0	0	0	515	506	0	0	40	20	
11	0	0	0	0	517	504	1	0	40	20	
12	0	0	0	0	522	502	2	0	40	20	
13	0	0	0	0	521	501	0	0	40	20	
14	0	0	0	0	517	504	2	0	40	20	
15	0	0	0	0	511	511	2	0	40	20	
0	0	0	0	0	509	515	1	0	40	20	
1	0	0	0	0	505	518	1	0	40	20	
2	0	0	0	0	504	520	3	0	40	20	
3	0	0	0	0	507	519	2	1018	40	20	
4	0	0	0	0	511	517	2	1018	40	20	
5	0	0	0	0	510	515	2	1018	40	20	
6	0	0	0	0	511	512	3	1018	40	20	
7	0	0	0	0	511	514	0	1018	40	20	
8	0	0	0	0	510	514	1	1019	40	20	
9	0	0	0	0	515	511	3	1019	40	20	
10	0	0	0	0	517	510	1	1018	40	20	
11	0	0	0	0	517	507	0	503	40	20	
12	0	0	0	0	522	503	1	0	40	20	
13	0	0	0	0	523	500	1	0	40	20	
14	0	0	0	0	516	498	0	0	40	20	
15	0	0	0	0	512	503	1	0	40	20	
0	0	0	0	0	508	508	3	0	40	20	
1	0	0	0	0	505	515	0	0	40	20	
2	0	0	0	0	506	519	3	0	40	20	
3	0	0	0	0	506	521	3	470	40	20	
4	0	0	0	0	508	522	3	1019	40	20	
5	0	0	0	0	512	520	2	1018	40	20	
6	0	0	0	0	511	514	3	1018	40	20	
7	0	0	0	0	511	511	1	1018	40	20	
8	0	0	0	0	509	515	3	1019	40	20	
9	0	0	0	0	510	512	2	1018	40	20	
10	0	0	0	0	517	511	2	1018	40	20	
11	0	0	0	0	518	507	0	1017	40	20	
12	0	0	0	0	520	501	2	199	40	20	
13	0	0	0	0	518	499	2	0	40	20	
14	0	0	0	0	521	499	1	0	40	20	
15	0	0	0	0	520	499	0	0	40	20	
0	0	0	0	0	513	505	1	0	40	20	
1	0	0	0	0	509	511	2	0	40	20	
2	0	0	0	0	504	515	2	0	40	20	
3	0	0	0	0	504	519	0	0	40	20	
4	0	0	0	0	507	521	3	104	40	20	
5	0	0	0	0	506	521	3	1018	40	20	
6	0	0	0	0	512	518	3	1018	40	20	
7	0	0	0	0	515	513	0	1018	40	20	
8	0	0	0	0	513	514	3	1018	40	20	
9	0	0	0	0	513	513	2	1018	40	20	
10	0	0	0	0	514	511	3	1018	40	20	
11	0	0	0	0	514	508	0	1018	40	20	
12	0	0	0	0	518	506	3	204	40	20	
13	0	0	0	0	520	501	1	0	40	20	
14	0	0	0	0	522	497	1	0	40	20	
15	0	0	0	0	515	496	0	0	40	20	
0	0	0	0	0	515	501	3	0	40	20	
1	0	0	0	0	509	507	2	0	40	20	
2	0	0	0	0	505	515	0	0	40	20	
3	0	0	0	0	504	518	2	0	40	20	
4	0	0	0	0	507	520	3	0	40	20	
5	0	0	0	0	508	519	2	1018	40	20	
6	0	0	0	0	508	516	2	1018	40	20	
7	0	0	0	0	513	514	2	1018	40	20	
8	0	0	0	0	513	513	3	1019	40	20	
9	0	0	0	0	510	515	1	1018	40	20	
10	0	0	0	0	515	515	3	1018	40	20	
11	0	0	0	0	514	513	2	1018	40	20	
12	0	0	0	0	516	511	1	1018	40	20	
13	0	0	0	0	517	504	0	415	40	20	
14	0	0	0	0	521	499	2	0	40	20	
15	0	0	0	0	521	496	2	0	40	20	
0	0	0	0	0	518	492	3	0	40	20	
1	0	0	0	0	511	497	0	0	40	20	
2	0	0	0	0	508	504	3	0	40	20	
3	0	0	0	0	508	510	1	0	40	20	
4	0	0	0	0	509	514	2	0	40	20	
5	0	0	0	0	503	515	3	0	40	20	
6	0	0	0	0	506	517	3	1018	40	20	
7	0	0	0	0	509	518	1	1018	40	20	
8	0	0	0	0	511	514	2	1018	40	20	
9	0	0	0	0	513	513	2	1018	40	20	
10	0	0	0	0	511	512	1	1018	40	20	
11	0	0	0	0	513	513	0	1018	40	20	
12	0	0	0	0	518	511	3	1019	40	20	
13	0	0	0	0	517	509	2	1018	40	20	
14	0	0	0	0	519	504	0	0	40	20	
15	0	0	0	0	521	500	0	0	40	20	
0	0	0	0	0	524	497	2	0	40	20	
1	0	0	0	0	519	496	2	0	40	20	
2	0	0	0	0	513	502	0	0	40	20	
3	0	0	0	0	510	507	2	0	40	20	
4	0	0	0	0	504	514	3	0	40	20	
5	0	0	0	0	502	516	1	0	40	20	
6	0	0	0	0	504	518	3	493	40	20	
7	0	0	0	0	507	518	3	1018	40	20	
8	0	0	0	0	511	515	3	1019	40	20	
9	0	0	0	0	514	511	0	1018	40	20	
10	0	0	0	0	509	514	2	1018	40	20	
11	0	0	0	0	509	515	2	1018	40	20	
12	0	0	0	0	514	514	3	1019	40	20	
13	0	0	0	0	514	511	1	1018	40	20	
14	0	0	0	0	516	508	2	353	40	20	
15	0	0	0	0	518	504	0	0	40	20	
0	0	0	0	0	520	500	3	0	40	20	
1	0	0	0	0	519	499	2	0	40	20	
2	0	0	0	0	517	502	1	0	40	20	
3	0	0	0	0	514	508	0	0	40	20	
4	0	0	0	0	508	511	3	0	40	20	
5	0	0	0	0	504	513	3	0	40	20	
6	0	0	0	0	507	515	1	0	40	20	
7	0	0	0	0	505	518	0	920	40	20	
8	0	0	0	0	510	518	4	1019	40	20	
9	0	0	0	0	509	513	3	1018	40	20	
10	0	0	0	0	512	512	1	1018	40	20	
11	0	0	0	0	511	512	2	1018	40	20	
12	0	0	0	0	510	510	3	1019	40	20	
13	0	0	0	0	510	508	2	1018	40	20	
14	0	0	0	0	519	507	0	660	40	20	
15	0	0	0	0	521	503	2	0	40	20	
0	0	0	0	0	522	501	3	0	40	20	
1	0	0	0	0	523	498	0	0	40	20	
2	0	0	0	0	522	498	2	0	40	20	
3	0	0	0	0	518	502	2	0	40	20	
4	0	0	0	0	512	508	2	0	40	20	
5	0	0	0	0	504	512	0	0	40	20	
6	0	0	0	0	503	515	2	0	40	20	
7	0	0	0	0	505	516	2	0	40	20	
8	0	0	0	0	504	516	3	1019	40	20	
9	0	0	0	0	509	516	3	1018	40	20	
10	0	0	0	0	512	514	3	1018	40	20	
11	0	0	0	0	510	512	0	1018	40	20	
12	0	0	0	0	510	513	3	1018	40	20	
13	0	0	0	0	512	512	2	1018	40	20	
14	0	0	0	0	513	510	1	1018	40	20	
15	0	0	0	0	520	506	0	1017	40	20	
0	0	0	0	0	524	502	2	0	40	20	
1	0	0	0	0	523	497	2	0	40	20	
2	0	0	0	0	522	493	0	0	40	20	
3	0	0	0	0	519	495	2	0	40	20	
4	0	0	0	0	511	500	1	0	40	20	
5	0	0	0	0	509	507	1	0	40	20	
6	0	0	0	0	505	514	1	0	40	20	
7	0	0	0	0	503	516	2	0	40	20	
8	0	0	0	0	508	519	3	0	40	20	
9	0	0	0	0	509	518	2	1018	40	20	
10	0	0	0	0	511	516	1	1018	40	20	
11	0	0	0	0	515	514	2	1018	40	20	
12	0	0	0	0	513	513	1	1019	40	20	
13	0	0	0	0	512	513	1	1018	40	20	
14	0	0	0	0	512	510	0	1018	40	20	
15	0	0	0	0	510	507	2	1018	40	20	
0	0	0	0	0	515	504	2	337	40	20	
1	0	0	0	0	519	500	0	0	40	20	
2	0	0	0	0	521	499	0	0	40	20	
3	0	0	0	0	522	497	2	0	40	20	
4	0	0	0	0	521	499	2	0	40	20	
5	0	0	0	0	509	504	1	0	40	20	
6	0	0	0	0	507	512	0	0	40	20	
7	0	0	0	0	504	515	2	0	40	20	
8	0	0	0	0	502	519	3	0	40	20	
9	0	0	0	0	506	519	1	1018	40	20	
10	0	0	0	0	507	517	1	1019	40	20	
11	0	0	0	0	508	515	2	1018	40	20	
12	0	0	0	0	515	513	3	1019	40	20	
13	0	0	0	0	515	511	0	1018	40	20	
14	0	0	0	0	515	512	3	1018	40	20	
15	0	0	0	0	515	508	1	1018	40	20	
0	0	0	0	0	515	508	3	1019	40	20	
1	0	0	0	0	516	504	2	696	40	20	
2	0	0	0	0	520	501	2	0	40	20	
3	0	0	0	0	521	499	0	0	40	20	
4	0	0	0	0	519	497	2	0	40	20	
5	0	0	0	0	513	501	2	0	40	20	
6	0	0	0	0	509	507	1	0	40	20	
7	0	0	0	0	504	513	0	0	40	20	
8	0	0	0	0	503	516	1	0	40	20	
9	0	0	0	0	503	517	2	0	40	20	
10	0	0	0	0	505	518	0	1018	40	20	
11	0	0	0	0	508	518	3	1018	40	20	
12	0	0	0	0	510	515	3	1018	40	20	
13	0	0	0	0	513	513	2	1018	40	20	
14	0	0	0	0	511	513	0	1018	40	20	
15	0	0	0	0	511	514	2	1018	40	20	
0	0	0	0	0	514	510	3	1018	40	20	
1	0	0	0	0	516	510	1	625	40	20	
2	0	0	0	0	519	508	0	0	40	20	
3	0	0	0	0	520	502	2	0	40	20	
4	0	0	0	0	522	498	2	0	40	20	
5	0	0	0	0	519	500	1	0	40	20	
6	0	0	0	0	513	505	0	0	40	20	
7	0	0	0	0	510	511	2	0	40	20	
8	0	0	0	0	505	516	3	0	40	20	
9	0	0	0	0	506	518	2	0	40	20	
10	0	0	0	0	505	521	1	498	40	20	
11	0	0	0	0	506	521	3	1018	40	20	
12	0	0	0	0	512	518	4	1019	40	20	
13	0	0	0	0	514	510	3	1019	40	20	
14	0	0	0	0	512	512	1	1018	40	20	
15	0	0	0	0	511	514	1	1018	40	20	
0	0	0	0	0	513	512	4	1019	40	20	
1	0	0	0	0	515	509	3	1018	40	20	
2	0	0	0	0	517	507	0	130	40	20	
3	0	0	0	0	519	502	0	0	40	20	
4	0	0	0	0	522	499	3	0	40	20	
5	0	0	0	0	520	496	2	0	40	20	
6	0	0	0	0	516	499	1	0	40	20	
7	0	0	0	0	510	505	0	0	40	20	
8	0	0	0	0	504	509	1	0	40	20	
9	0	0	0	0	501	512	2	0	40	20	
10	0	0	0	0	502	515	3	0	40	20	
11	0	0	0	0	507	516	1	399	40	20	
12	0	0	0	0	512	517	4	1019	40	20	
13	0	0	0	0	517	513	3	1018	40	20	
14	0	0	0	0	518	511	1	1018	40	20	
15	0	0	0	0	513	512	0	1018	40	20	
0	0	0	0	0	513	512	3	1019	40	20	
1	0	0	0	0	515	509	3	1018	40	20	
2	0	0	0	0	519	508	0	192	40	20	
3	0	0	0	0	521	507	2	0	40	20	
4	0	0	0	0	520	503	3	0	40	20	
5	0	0	0	0	520	498	1	0	40	20	
6	0	0	0	0	521	498	0	0	40	20	
7	0	0	0	0	513	503	2	0	40	20	
8	0	0	0	0	509	507	3	0	40	20	
9	0	0	0	0	505	512	1	0	40	20	
10	0	0	0	0	503	516	3	0	40	20	
11	0	0	0	0	502	519	3	0	40	20	
12	0	0	0	0	500	518	2	1019	40	20	
13	0	0	0	0	506	517	1	1018	40	20	
14	0	0	0	0	511	517	3	1018	40	20	
15	0	0	0	0	514	515	1	1018	40	20	
0	0	0	0	0	512	514	2	1018	40	20	
1	0	0	0	0	512	513	3	1018	40	20	
2	0	0	0	0	513	512	2	751	40	20	
3	0	0	0	0	517	508	0	50	40	20	
4	0	0	0	0	519	502	3	0	40	20	
5	0	0	0	0	519	499	2	0	40	20	
6	0	0	0	0	521	497	1	0	40	20	
7	0	0	0	0	520	497	0	0	40	20	
8	0	0	0	0	512	501	1	0	40	20	
9	0	0	0	0	508	507	3	0	40	20	
10	0	0	0	0	504	512	1	0	40	20	
11	0	0	0	0	503	516	2	0	40	20	
12	0	0	0	0	507	518	3	100	40	20	
13	0	0	0	0	506	517	2	1018	40	20	
14	0	0	0	0	509	514	1	1018	40	20	
15	0	0	0	0	508	511	2	1018	40	20	
0	0	0	0	0	504	511	2	1019	40	20	
1	0	0	0	0	505	511	0	1018	40	20	
2	0	0	0	0	512	512	3	1018	40	20	
3	0	0	0	0	520	511	2	1018	40	20	
4	0	0	0	0	523	509	2	1019	40	20	
5	0	0	0	0	529	505	0	62	40	20	
6	0	0	0	0	526	500	2	0	40	20	
7	0	0	0	0	523	498	1	0	40	20	
8	0	0	0	0	518	499	3	0	40	20	
9	0	0	0	0	511	502	2	0	40	20	
10	0	0	0	0	507	510	2	0	40	20	
11	0	0	0	0	506	515	1	0	40	20	
12	0	0	0	0	502	518	1	0	40	20	
13	0	0	0	0	506	518	3	951	40	20	
14	0	0	0	0	507	519	2	1018	40	20	
15	0	0	0	0	512	517	0	1018	40	20	
0	0	0	0	0	514	512	1	1018	40	20	
1	0	0	0	0	510	512	3	1018	40	20	
2	0	0	0	0	511	512	1	1018	40	20	
3	0	0	0	0	511	510	2	1018	40	20	
4	0	0	0	0	513	507	3	1018	40	20	
5	0	0	0	0	515	504	1	224	40	20	
6	0	0	0	0	518	501	0	0	40	20	
7	0	0	0	0	522	501	2	0	40	20	
8	0	0	0	0	522	500	3	0	40	20	
9	0	0	0	0	515	502	1	0	40	20	
10	0	0	0	0	510	508	1	0	40	20	
11	0	0	0	0	505	513	0	0	40	20	
12	0	0	0	0	505	516	2	0	40	20	
13	0	0	0	0	505	516	3	0	40	20	
14	0	0	0	0	506	517	1	1018	40	20	
15	0	0	0	0	510	515	0	1018	40	20	
0	0	0	0	0	511	513	3	1019	40	20	
1	0	0	0	0	513	511	2	1018	40	20	
2	0	0	0	0	511	515	1	1018	40	20	
3	0	0	0	0	511	516	0	1018	40	20	
4	0	0	0	0	514	513	1	1019	40	20	
5	0	0	0	0	515	511	3	1018	40	20	
6	0	0	0	0	521	507	0	290	40	20	
7	0	0	0	0	521	502	0	0	40	20	
8	0	0	0	0	524	500	3	0	40	20	
9	0	0	0	0	521	496	2	0	40	20	
10	0	0	0	0	515	504	1	0	40	20	
11	0	0	0	0	513	508	0	0	40	20	
12	0	0	0	0	512	513	3	0	40	20	
13	0	0	0	0	511	516	2	0	40	20	
14	0	0	0	0	509	518	1	531	40	20	
15	0	0	0	0	507	519	2	1018	40	20	
0	0	0	0	0	508	517	4	1019	40	20	
1	0	0	0	0	511	513	2	1019	40	20	
2	0	0	0	0	510	515	0	1018	40	20	
3	0	0	0	0	507	516	2	1018	40	20	
4	0	0	0	0	514	513	3	1019	40	20	
5	0	0	0	0	516	512	1	1018	40	20	
6	0	0	0	0	513	508	1	1018	40	20	
7	0	0	0	0	515	504	1	0	40	20	
8	0	0	0	0	517	502	2	0	40	20	
9	0	0	0	0	520	498	0	0	40	20	
10	0	0	0	0	521	499	2	0	40	20	
11	0	0	0	0	522	506	2	0	40	20	
12	0	0	0	0	516	511	3	0	40	20	
13	0	0	0	0	511	516	1	0	40	20	
14	0	0	0	0	513	519	3	0	40	20	
15	0	0	0	0	521	520	2	1018	40	20	
0	0	0	0	0	523	519	4	1019	40	20	
1	0	0	0	0	517	516	3	1018	40	20	
2	0	0	0	0	511	514	3	1018	40	20	
3	0	0	0	0	497	513	2	1018	40	20	
4	0	0	0	0	486	512	3	1019	40	20	
5	0	0	0	0	489	509	0	1018	40	20	
6	0	0	0	0	490	507	2	1018	40	20	
7	0	0	0	0	501	505	2	419	40	20	
8	0	0	0	0	517	502	2	0	40	20	
9	0	0	0	0	521	497	0	0	40	20	
10	0	0	0	0	526	496	2	0	40	20	
11	0	0	0	0	523	503	2	0	40	20	
12	0	0	0	0	513	507	3	0	40	20	
13	0	0	0	0	497	512	1	0	40	20	
14	0	0	0	0	489	514	3	0	40	20	
15	0	0	0	0	486	516	2	0	40	20	
0	0	0	0	0	505	517	2	862	40	20	
1	0	0	0	0	515	516	1	1018	40	20	
2	0	0	0	0	513	514	3	1018	40	20	
3	0	0	0	0	519	512	2	1018	40	20	
4	0	0	0	0	522	512	1	1017	40	20	
5	0	0	0	0	537	512	0	1018	40	20	
6	0	0	0	0	530	510	3	1018	40	20	
7	0	0	0	0	524	508	1	478	40	20	
8	0	0	0	0	526	502	1	0	40	20	
9	0	0	0	0	528	497	2	0	40	20	
10	0	0	0	0	535	497	2	0	40	20	
11	0	0	0	0	543	497	0	0	40	20	
12	0	0	0	0	531	502	3	0	40	20	
13	0	0	0	0	504	508	3	0	40	20	
14	0	0	0	0	487	511	2	0	40	20	
15	0	0	0	0	487	516	0	0	40	20	
0	0	0	0	0	478	519	4	461	40	20	
1	0	0	0	0	472	518	3	1018	40	20	
2	0	0	0	0	482	516	1	1018	40	20	
3	0	0	0	0	496	512	1	1018	40	20	
4	0	0	0	0	501	513	3	1019	40	20	
5	0	0	0	0	503	515	3	1018	40	20	
6	0	0	0	0	514	515	1	1018	40	20	
7	0	0	0	0	517	512	0	1018	40	20	
8	0	0	0	0	527	508	1	1018	40	20	
9	0	0	0	0	528	505	1	311	40	20	
10	0	0	0	0	534	503	1	0	40	20	
11	0	0	0	0	540	501	0	0	40	20	
12	0	0	0	0	542	501	1	0	40	20	
13	0	0	0	0	548	505	2	0	40	20	
14	0	0	0	0	544	510	2	0	40	20	
15	0	0	0	0	524	516	1	0	40	20	
0	0	0	0	0	507	519	3	0	40	20	
1	0	0	0	0	502	519	3	944	40	20	
2	0	0	0	0	504	519	3	1018	40	20	
3	0	0	0	0	493	517	1	1018	40	20	
4	0	0	0	0	489	512	3	1019	40	20	
5	0	0	0	0	481	513	1	1018	40	20	
6	0	0	0	0	484	513	2	1018	40	20	
7	0	0	0	0	475	511	2	1018	40	20	
8	0	0	0	0	477	508	3	1017	40	20	
9	0	0	0	0	491	505	0	449	40	20	
10	0	0	0	0	515	501	2	0	40	20	
11	0	0	0	0	532	499	2	0	40	20	
12	0	0	0	0	531	495	1	0	40	20	
13	0	0	0	0	537	498	0	0	40	20	
14	0	0	0	0	537	504	1	0	40	20	
15	0	0	0	0	524	510	2	0	40	20	
0	0	0	0	0	511	515	3	0	40	20	
1	0	0	0	0	508	517	1	0	40	20	
2	0	0	0	0	505	520	1	1018	40	20	
3	0	0	0	0	506	520	3	1018	40	20	
4	0	0	0	0	511	517	2	1019	40	20	
5	0	0	0	0	515	515	2	1018	40	20	
6	0	0	0	0	524	515	0	1019	40	20	
7	0	0	0	0	527	518	1	1018	40	20	
8	0	0	0	0	529	514	2	1018	40	20	
9	0	0	0	0	523	512	2	1018	40	20	
10	0	0	0	0	506	509	0	49	40	20	
11	0	0	0	0	492	503	2	0	40	20	
12	0	0	0	0	501	498	2	0	40	20	
13	0	0	0	0	503	497	1	0	40	20	
14	0	0	0	0	510	503	0	0	40	20	
15	0	0	0	0	519	509	2	0	40	20	
0	0	0	0	0	519	512	2	0	40	20	
1	0	0	0	0	522	515	0	0	40	20	
2	0	0	0	0	533	519	3	0	40	20	
3	0	0	0	0	533	520	3	1017	40	20	
4	0	0	0	0	525	518	3	1019	40	20	
5	0	0	0	0	521	514	1	1019	40	20	
6	0	0	0	0	509	515	2	1018	40	20	
7	0	0	0	0	504	514	1	1018	40	20	
8	0	0	0	0	500	514	3	1019	40	20	
9	0	0	0	0	500	510	3	887	40	20	
10	0	0	0	0	510	506	2	110	40	20	
11	0	0	0	0	514	502	0	0	40	20	
12	0	0	0	0	516	499	1	0	40	20	
13	0	0	0	0	521	496	2	0	40	20	
14	0	0	0	0	523	497	1	0	40	20	
15	0	0	0	0	511	502	0	0	40	20	
0	0	0	0	0	504	506	2	0	40	20	
1	0	0	0	0	499	511	2	0	40	20	
2	0	0	0	0	500	515	0	0	40	20	
3	0	0	0	0	502	517	3	715	40	20	
4	0	0	0	0	508	517	2	1017	40	20	
5	0	0	0	0	511	515	1	1018	40	20	
6	0	0	0	0	505	511	1	1018	40	20	
7	0	0	0	0	508	513	2	1018	40	20	
8	0	0	0	0	518	515	2	1019	40	20	
9	0	0	0	0	521	511	1	1018	40	20	
10	0	0	0	0	521	510	2	1018	40	20	
11	0	0	0	0	520	505	2	321	40	20	
12	0	0	0	0	517	500	2	0	40	20	
13	0	0	0	0	516	496	0	0	40	20	
14	0	0	0	0	516	495	2	0	40	20	
15	0	0	0	0	504	498	2	0	40	20	
0	0	0	0	0	503	504	3	0	40	20	
1	0	0	0	0	506	508	0	0	40	20	
2	0	0	0	0	512	515	2	0	40	20	
3	0	0	0	0	519	518	1	0	40	20	
4	0	0	0	0	529	519	3	1019	40	20	
5	0	0	0	0	533	516	3	1018	40	20	
6	0	0	0	0	534	514	3	1018	40	20	
7	0	0	0	0	529	511	1	1018	40	20	
8	0	0	0	0	519	512	1	1017	40	20	
9	0	0	0	0	508	513	2	1018	40	20	
10	0	0	0	0	497	512	1	1018	40	20	
11	0	0	0	0	497	512	0	1018	40	20	
12	0	0	0	0	497	508	2	1018	40	20	
13	0	0	0	0	499	504	2	27	40	20	
14	0	0	0	0	499	501	0	0	40	20	
15	0	0	0	0	505	499	0	0	40	20	
0	0	0	0	0	508	504	3	0	40	20	
1	0	0	0	0	502	509	2	0	40	20	
2	0	0	0	0	491	515	0	0	40	20	
3	0	0	0	0	491	519	2	0	40	20	
4	0	0	0	0	505	520	3	835	40	20	
5	0	0	0	0	521	519	1	1018	40	20	
6	0	0	0	0	526	515	2	1018	40	20	
7	0	0	0	0	530	512	2	1018	40	20	
8	0	0	0	0	521	511	1	1019	40	20	
9	0	0	0	0	515	511	0	1018	40	20	
10	0	0	0	0	514	510	3	1018	40	20	
11	0	0	0	0	526	508	2	1018	40	20	
12	0	0	0	0	534	507	2	1019	40	20	
13	0	0	0	0	532	503	1	1018	40	20	
14	0	0	0	0	531	500	2	0	40	20	
15	0	0	0	0	531	496	0	0	40	20	
0	0	0	0	0	521	495	1	0	40	20	
1	0	0	0	0	497	499	2	0	40	20	
2	0	0	0	0	484	508	0	0	40	20	
3	0	0	0	0	481	514	1	0	40	20	
4	0	0	0	0	483	516	2	0	40	20	
5	0	0	0	0	483	518	3	645	40	20	
6	0	0	0	0	485	518	1	1018	40	20	
7	0	0	0	0	495	517	2	1018	40	20	
8	0	0	0	0	513	514	1	1018	40	20	
9	0	0	0	0	531	513	1	1018	40	20	
10	0	0	0	0	543	514	1	1018	40	20	
11	0	0	0	0	551	513	2	1018	40	20	
12	0	0	0	0	541	512	2	1017	40	20	
13	0	0	0	0	517	508	0	10	40	20	
14	0	0	0	0	505	503	2	0	40	20	
15	0	0	0	0	512	499	2	0	40	20	
0	0	0	0	0	523	496	3	0	40	20	
1	0	0	0	0	522	498	0	0	40	20	
2	0	0	0	0	513	505	2	0	40	20	
3	0	0	0	0	513	512	1	0	40	20	
4	0	0	0	0	511	516	1	0	40	20	
5	0	0	0	0	504	519	3	0	40	20	
6	0	0	0	0	496	521	3	931	40	20	
7	0	0	0	0	498	520	1	1018	40	20	
8	0	0	0	0	511	516	2	1018	40	20	
9	0	0	0	0	518	513	2	1018	40	20	
10	0	0	0	0	519	514	1	1018	40	20	
11	0	0	0	0	513	513	0	1018	40	20	
12	0	0	0	0	521	511	3	1019	40	20	
13	0	0	0	0	522	507	2	504	40	20	
14	0	0	0	0	520	504	0	0	40	20	
15	0	0	0	0	521	501	0	0	40	20	
0	0	0	0	0	521	497	1	0	40	20	
1	0	0	0	0	514	497	1	0	40	20	
2	0	0	0	0	507	502	0	0	40	20	
3	0	0	0	0	499	507	2	0	40	20	
4	0	0	0	0	495	512	3	0	40	20	
5	0	0	0	0	493	516	1	0	40	20	
6	0	0	0	0	505	519	2	0	40	20	
7	0	0	0	0	509	519	3	1018	40	20	
8	0	0	0	0	510	518	3	1019	40	20	
9	0	0	0	0	514	514	1	1019	40	20	
10	0	0	0	0	516	515	2	1018	40	20	
11	0	0	0	0	513	516	2	1018	40	20	
12	0	0	0	0	506	517	2	1019	40	20	
13	0	0	0	0	504	513	0	1018	40	20	
14	0	0	0	0	512	510	2	623	40	20	
15	0	0	0	0	529	504	1	0	40	20	
0	0	0	0	0	541	499	1	0	40	20	
1	0	0	0	0	570	496	1	0	40	20	
2	0	0	0	0	588	498	2	0	40	20	
3	0	0	0	0	572	503	1	0	40	20	
4	0	0	0	0	549	507	1	0	40	20	
5	0	0	0	0	519	515	2	0	40	20	
6	0	0	0	0	498	519	3	0	40	20	
7	0	0	0	0	478	521	1	986	40	20	
8	0	0	0	0	456	521	4	1019	40	20	
9	0	0	0	0	444	519	2	1018	40	20	
10	0	0	0	0	434	518	2	1018	40	20	
11	0	0	0	0	423	518	0	1018	40	20	
12	0	0	0	0	436	519	3	1019	40	20	
13	0	0	0	0	457	516	3	1019	40	20	
14	0	0	0	0	484	513	0	1018	40	20	
15	0	0	0	0	508	509	0	1018	40	20	
0	0	0	0	0	533	504	3	260	40	20	
1	0	0	0	0	560	500	2	0	40	20	
2	0	0	0	0	574	495	0	0	40	20	
3	0	0	0	0	561	498	1	0	40	20	
4	0	0	0	0	543	504	3	0	40	20	
5	0	0	0	0	530	509	1	0	40	20	
6	0	0	0	0	519	515	0	0	40	20	
7	0	0	0	0	509	518	2	6	40	20	
8	0	0	0	0	496	519	4	1019	40	20	
9	0	0	0	0	489	516	3	1018	40	20	
10	0	0	0	0	493	514	1	1018	40	20	
11	0	0	0	0	503	513	1	1018	40	20	
12	0	0	0	0	518	513	2	1017	40	20	
13	0	0	0	0	543	513	2	1018	40	20	
14	0	0	0	0	560	512	0	1018	40	20	
15	0	0	0	0	552	511	2	1018	40	20	
0	0	0	0	0	538	504	1	1019	40	20	
1	0	0	0	0	525	500	1	300	40	20	
2	0	0	0	0	522	498	1	0	40	20	
3	0	0	0	0	524	497	2	0	40	20	
4	0	0	0	0	505	499	3	0	40	20	
5	0	0	0	0	497	505	0	0	40	20	
6	0	0	0	0	492	510	2	0	40	20	
7	0	0	0	0	489	514	1	0	40	20	
8	0	0	0	0	476	516	2	0	40	20	
9	0	0	0	0	476	517	3	1018	40	20	
10	0	0	0	0	491	517	3	1018	40	19	
11	0	0	0	0	519	514	1	1018	40	19	
12	0	0	0	0	531	512	3	1019	40	20	
13	0	0	0	0	531	513	3	1018	40	19	
14	0	0	0	0	527	514	1	1018	40	19	
15	0	0	0	0	537	513	1	1018	40	19	
0	0	0	0	0	547	509	3	1019	40	19	
1	0	0	0	0	539	502	2	576	40	19	
2	0	0	0	0	536	496	0	0	40	19	
3	0	0	0	0	531	493	2	0	40	19	
4	0	0	0	0	520	492	3	0	40	19	
5	0	0	0	0	503	499	1	0	40	19	
6	0	0	0	0	498	507	0	0	40	19	
7	0	0	0	0	491	513	2	0	40	19	
8	0	0	0	0	491	519	3	0	40	19	
9	0	0	0	0	497	517	1	0	40	19	
10	0	0	0	0	524	516	1	1018	40	19	
11	0	0	0	0	526	514	3	1018	40	19	
12	0	0	0	0	513	509	3	1018	40	19	
13	0	0	0	0	505	513	1	1018	40	19	
14	0	0	0	0	505	515	2	1019	40	19	
15	0	0	0	0	492	515	2	1018	40	19	
0	0	0	0	0	483	512	3	1018	40	19	
1	0	0	0	0	487	507	0	664	40	19	
2	0	0	0	0	494	502	2	0	40	19	
3	0	0	0	0	497	498	1	0	40	19	
4	0	0	0	0	527	495	2	0	40	19	
5	0	0	0	0	543	496	2	0	40	19	
6	0	0	0	0	550	503	2	0	40	19	
7	0	0	0	0	553	510	1	0	40	19	
8	0	0	0	0	555	515	3	0	40	19	
9	0	0	0	0	532	519	3	0	40	19	
10	0	0	0	0	513	521	2	1018	40	19	
11	0	0	0	0	484	518	0	1018	40	19	
12	0	0	0	0	476	515	2	1018	40	19	
13	0	0	0	0	462	510	3	1018	40	19	
14	0	0	0	0	457	510	1	1019	40	19	
15	0	0	0	0	477	512	0	1018	40	19	
0	0	0	0	0	515	509	3	1019	40	19	
1	0	0	0	0	540	508	1	1018	40	19	
2	0	0	0	0	543	506	0	1018	40	19	
3	0	0	0	0	528	501	2	0	40	19	
4	0	0	0	0	526	498	2	0	40	19	
5	0	0	0	0	517	497	0	0	40	19	
6	0	0	0	0	505	504	2	0	40	19	
7	0	0	0	0	497	510	2	0	40	19	
8	0	0	0	0	490	515	1	0	40	19	
9	0	0	0	0	494	518	0	0	40	19	
10	0	0	0	0	496	520	3	0	40	19	
11	0	0	0	0	495	521	3	1018	40	19	
12	0	0	0	0	501	519	3	1019	40	19	
13	0	0	0	0	511	513	3	1019	40	19	
14	0	0	0	0	515	512	2	1018	40	19	
15	0	0	0	0	521	512	1	1018	40	19	
0	0	0	0	0	526	513	3	1019	40	19	
1	0	0	0	0	527	511	2	1018	40	19	
2	0	0	0	0	526	507	2	1018	40	19	
3	0	0	0	0	537	503	0	1017	40	19	
4	0	0	0	0	541	501	3	101	40	19	
5	0	0	0	0	541	498	2	0	40	19	
6	0	0	0	0	539	500	1	0	40	19	
7	0	0	0	0	517	506	0	0	40	19	
8	0	0	0	0	511	511	1	0	40	19	
9	0	0	0	0	503	515	3	0	40	19	
10	0	0	0	0	498	519	1	0	40	19	
11	0	0	0	0	502	522	3	608	40	19	
12	0	0	0	0	497	524	4	1019	40	19	
13	0	0	0	0	500	523	1	1018	40	19	
14	0	0	0	0	515	520	1	1018	40	19	
15	0	0	0	0	544	519	2	1018	40	19	
0	0	0	0	0	558	520	2	1019	40	19	
1	0	0	0	0	547	517	1	1019	40	19	
2	0	0	0	0	537	515	2	1018	40	19	
3	0	0	0	0	523	512	2	1018	40	19	
4	0	0	0	0	504	507	2	664	40	19	
5	0	0	0	0	493	501	0	0	40	19	
6	0	0	0	0	484	496	2	0	40	19	
7	0	0	0	0	467	499	1	0	40	19	
8	0	0	0	0	478	505	1	0	40	19	
9	0	0	0	0	477	511	1	0	40	19	
10	0	0	0	0	482	517	2	0	40	19	
11	0	0	0	0	495	521	1	0	40	19	
12	0	0	0	0	540	522	3	1018	40	19	
13	0	0	0	0	544	521	3	1018	40	19	
14	0	0	0	0	539	519	3	1018	40	19	
15	0	0	0	0	527	516	1	1018	40	19	
0	0	0	0	0	519	518	3	1019	40	19	
1	0	0	0	0	513	516	2	1018	40	19	
2	0	0	0	0	494	513	1	1018	40	19	
3	0	0	0	0	465	511	0	1018	40	19	
4	0	0	0	0	472	507	3	1019	40	19	
5	0	0	0	0	486	498	2	0	40	19	
6	0	0	0	0	489	496	0	0	40	19	
7	0	0	0	0	497	493	2	0	40	19	
8	0	0	0	0	500	497	2	0	40	19	
9	0	0	0	0	511	503	1	0	40	19	
10	0	0	0	0	515	510	0	0	40	19	
11	0	0	0	0	515	516	2	0	40	19	
12	0	0	0	0	528	519	3	0	40	19	
13	0	0	0	0	539	520	1	1018	40	19	
14	0	0	0	0	548	519	3	1018	40	19	
15	0	0	0	0	554	517	3	1018	40	19	
0	0	0	0	0	560	515	2	1019	40	19	
1	0	0	0	0	560	515	0	1018	40	19	
2	0	0	0	0	547	515	2	1018	40	19	
3	0	0	0	0	532	513	2	1018	40	18	
4	0	0	0	0	503	510	2	1019	40	19	
5	0	0	0	0	484	504	0	1018	40	18	
6	0	0	0	0	491	500	2	0	40	18	
7	0	0	0	0	510	497	1	0	40	18	
8	0	0	0	0	513	497	3	0	40	18	
9	0	0	0	0	494	502	2	0	40	18	
10	0	0	0	0	484	507	2	0	40	18	
11	0	0	0	0	481	512	1	0	40	18	
12	0	0	0	0	482	516	4	0	40	18	
13	0	0	0	0	484	517	3	0	40	18	
14	0	0	0	0	493	515	3	1018	40	18	
15	0	0	0	0	509	514	1	1018	40	18	
0	0	0	0	0	545	512	4	1019	40	18	
1	0	0	0	0	555	513	3	1018	40	18	
2	0	0	0	0	543	516	2	1018	40	18	
3	0	0	0	0	529	513	0	1018	40	18	
4	0	0	0	0	520	511	1	1018	40	18	
5	0	0	0	0	514	507	2	1018	40	18	
6	0	0	0	0	515	501	1	0	40	18	
7	0	0	0	0	512	498	0	0	40	18	
8	0	0	0	0	510	494	3	0	40	18	
9	0	0	0	0	503	495	2	0	40	18	
10	0	0	0	0	507	502	1	0	40	18	
11	0	0	0	0	507	509	1	0	40	18	
12	0	0	0	0	506	516	2	0	40	18	
13	0	0	0	0	514	521	3	0	40	18	
14	0	0	0	0	514	523	1	0	40	18	
15	0	0	0	0	515	523	3	1018	40	18	
0	0	0	0	0	521	520	3	1018	40	18	
1	0	0	0	0	533	517	2	1018	40	18	
2	0	0	0	0	520	518	0	1018	40	18	
3	0	0	0	0	503	518	2	1018	40	18	
4	0	0	0	0	501	516	3	1019	40	18	
5	0	0	0	0	511	510	1	1018	40	18	
6	0	0	0	0	518	507	0	319	40	18	
7	0	0	0	0	504	503	2	0	40	18	
8	0	0	0	0	507	497	2	0	40	18	
9	0	0	0	0	521	495	0	0	40	18	
10	0	0	0	0	519	499	2	0	40	18	
11	0	0	0	0	505	505	2	0	40	18	
12	0	0	0	0	489	511	3	0	40	18	
13	0	0	0	0	491	517	0	0	40	18	
14	0	0	0	0	496	521	3	0	40	18	
15	0	0	0	0	497	522	2	1018	40	18	
0	0	0	0	0	507	519	3	1019	40	18	
1	0	0	0	0	506	516	3	1018	40	18	
2	0	0	0	0	515	515	2	1018	40	18	
3	0	0	0	0	542	517	1	1018	40	18	
4	0	0	0	0	539	516	2	1018	40	18	
5	0	0	0	0	531	515	2	1018	40	18	
6	0	0	0	0	514	511	2	1018	40	18	
7	0	0	0	0	512	507	0	368	40	18	
8	0	0	0	0	512	501	1	0	40	18	
9	0	0	0	0	511	497	2	0	40	18	
10	0	0	0	0	511	497	1	0	40	18	
11	0	0	0	0	493	503	0	0	40	18	
12	0	0	0	0	481	512	3	0	40	18	
13	0	0	0	0	500	515	3	0	40	18	
14	0	0	0	0	520	520	1	0	40	18	
15	0	0	0	0	527	523	3	531	40	18	
0	0	0	0	0	533	524	4	1019	40	19	
1	0	0	0	0	545	520	2	1018	40	18	
2	0	0	0	0	551	516	1	1018	40	18	
3	0	0	0	0	546	517	2	1018	40	18	
4	0	0	0	0	543	517	3	1019	40	19	
5	0	0	0	0	520	513	1	1019	40	18	
6	0	0	0	0	486	510	0	1018	40	19	
7	0	0	0	0	460	507	2	1018	40	19	
8	0	0	0	0	458	504	3	1019	40	19	
9	0	0	0	0	483	500	1	0	40	19	
10	0	0	0	0	501	497	0	0	40	19	
11	0	0	0	0	505	500	1	0	40	19	
12	0	0	0	0	478	506	2	0	40	19	
13	0	0	0	0	461	512	2	0	40	19	
14	0	0	0	0	486	516	1	0	40	19	
15	0	0	0	0	518	519	1	0	40	19	
0	0	0	0	0	536	520	4	1018	40	19	
1	0	0	0	0	540	519	3	1018	40	19	
2	0	0	0	0	542	517	2	1018	40	19	
3	0	0	0	0	543	514	0	1018	40	19	
4	0	0	0	0	538	516	3	1017	40	19	
5	0	0	0	0	538	516	2	1018	40	19	
6	0	0	0	0	536	515	2	1018	40	19	
7	0	0	0	0	516	512	0	1018	40	19	
8	0	0	0	0	510	507	3	1019	40	19	
9	0	0	0	0	521	500	2	0	40	19	
10	0	0	0	0	542	497	2	0	40	19	
11	0	0	0	0	527	494	0	0	40	19	
12	0	0	0	0	502	498	1	0	40	19	
13	0	0	0	0	496	506	2	0	40	19	
14	0	0	0	0	483	512	3	0	40	19	
15	0	0	0	0	464	518	0	0	40	19	
0	0	0	0	0	480	523	4	0	40	19	
1	0	0	0	0	479	521	3	1018	40	19	
2	0	0	0	0	480	519	1	1018	40	19	
3	0	0	0	0	495	517	1	1018	40	19	
4	0	0	0	0	535	514	4	1019	40	19	
5	0	0	0	0	555	515	2	1018	40	19	
6	0	0	0	0	553	516	0	1018	40	19	
7	0	0	0	0	548	513	2	1018	40	19	
8	0	0	0	0	534	507	3	1018	40	19	
9	0	0	0	0	531	502	1	522	40	19	
10	0	0	0	0	547	497	2	0	40	19	
11	0	0	0	0	548	494	2	0	40	19	
12	0	0	0	0	514	492	1	0	40	19	
13	0	0	0	0	487	498	0	0	40	19	
14	0	0	0	0	472	505	2	0	40	19	
15	0	0	0	0	466	513	2	0	40	19	
0	0	0	0	0	481	518	3	0	40	19	
1	0	0	0	0	490	520	1	0	40	19	
2	0	0	0	0	502	521	3	1018	40	19	
3	0	0	0	0	514	519	2	1018	40	19	
4	0	0	0	0	524	516	3	1019	40	19	
5	0	0	0	0	512	515	3	1018	40	19	
6	0	0	0	0	512	515	3	1019	40	19	
7	0	0	0	0	537	514	0	1018	40	19	
8	0	0	0	0	542	512	2	1019	40	19	
9	0	0	0	0	551	508	2	1018	40	19	
10	0	0	0	0	550	502	2	16	40	19	
11	0	0	0	0	530	497	0	0	40	19	
12	0	0	0	0	509	491	1	0	40	19	
13	0	0	0	0	499	492	1	0	40	19	
14	0	0	0	0	483	500	1	0	40	19	
15	0	0	0	0	470	507	0	0	40	19	
0	0	0	0	0	465	513	3	0	40	19	
1	0	0	0	0	454	516	3	0	40	19	
2	0	0	0	0	460	518	1	0	40	19	
3	0	0	0	0	484	519	1	1018	40	19	
4	0	0	0	0	519	514	3	1018	40	19	
5	0	0	0	0	521	511	3	1018	40	19	
6	0	0	0	0	527	512	1	1018	40	19	
7	0	0	0	0	538	514	2	1018	40	19	
8	0	0	0	0	588	511	1	1019	40	19	
9	0	0	0	0	592	508	1	1018	40	19	
10	0	0	0	0	576	505	1	1018	40	19	
11	0	0	0	0	558	499	1	92	40	19	
12	0	0	0	0	535	495	1	0	40	19	
13	0	0	0	0	515	492	0	0	40	19	
14	0	0	0	0	498	497	2	0	40	19	
15	0	0	0	0	478	505	2	0	40	19	
0	0	0	0	0	449	511	1	0	40	19	
1	0	0	0	0	423	515	0	0	40	19	
2	0	0	0	0	444	520	3	0	40	19	
3	0	0	0	0	476	522	2	1017	40	19	
4	0	0	0	0	494	521	4	1019	40	19	
5	0	0	0	0	513	517	3	1019	40	19	
6	0	0	0	0	526	516	2	1018	40	19	
7	0	0	0	0	528	516	0	1018	40	19	
8	0	0	0	0	535	516	3	1019	40	19	
9	0	0	0	0	533	512	2	1018	40	19	
10	0	0	0	0	533	508	2	1019	40	19	
11	0	0	0	0	531	504	0	1017	40	19	
12	0	0	0	0	529	496	1	0	40	19	
13	0	0	0	0	518	494	2	0	40	19	
14	0	0	0	0	534	492	1	0	40	19	
15	0	0	0	0	531	499	0	0	40	19	
0	0	0	0	0	525	506	1	0	40	19	
1	0	0	0	0	526	515	3	0	40	19	
2	0	0	0	0	527	518	1	0	40	19	
3	0	0	0	0	539	521	3	0	40	19	
4	0	0	0	0	547	521	4	1017	40	19	
5	0	0	0	0	538	518	1	1018	40	19	
6	0	0	0	0	517	515	2	1018	40	19	
7	0	0	0	0	505	517	2	1018	40	19	
8	0	0	0	0	505	517	2	1019	40	19	
9	0	0	0	0	477	515	0	1019	40	19	
10	0	0	0	0	458	512	2	1018	40	19	
11	0	0	0	0	445	510	2	1017	40	19	
12	0	0	0	0	483	504	1	0	40	19	
13	0	0	0	0	518	497	0	0	40	19	
14	0	0	0	0	547	493	2	0	40	19	
15	0	0	0	0	542	495	2	0	40	19	
0	0	0	0	0	524	503	3	0	40	19	
1	0	0	0	0	515	508	1	0	40	19	
2	0	0	0	0	500	514	3	0	40	19	
3	0	0	0	0	483	519	1	0	40	19	
4	0	0	0	0	478	518	2	0	40	19	
5	0	0	0	0	482	518	3	1018	40	19	
6	0	0	0	0	497	516	3	1018	40	19	
7	0	0	0	0	511	513	1	1018	40	19	
8	0	0	0	0	516	516	3	1019	40	19	
9	0	0	0	0	519	513	2	1018	40	19	
10	0	0	0	0	513	512	1	1018	40	19	
11	0	0	0	0	518	510	0	1018	40	19	
12	0	0	0	0	547	504	3	1019	40	19	
13	0	0	0	0	561	498	2	0	40	19	
14	0	0	0	0	560	494	1	0	40	19	
15	0	0	0	0	561	491	0	0	40	19	
0	0	0	0	0	544	496	3	0	40	19	
1	0	0	0	0	522	501	2	0	40	19	
2	0	0	0	0	495	509	0	0	40	19	
3	0	0	0	0	460	516	2	0	40	19	
4	0	0	0	0	481	521	4	0	40	19	
5	0	0	0	0	483	521	2	588	40	19	
6	0	0	0	0	476	523	2	1019	40	19	
7	0	0	0	0	476	518	2	1018	40	19	
8	0	0	0	0	482	516	2	1019	40	19	
9	0	0	0	0	519	517	0	1018	40	19	
10	0	0	0	0	554	516	3	1018	40	19	
11	0	0	0	0	552	513	2	1018	40	19	
12	0	0	0	0	537	511	2	1019	40	19	
13	0	0	0	0	526	505	1	546	40	19	
14	0	0	0	0	519	500	2	0	40	19	
15	0	0	0	0	519	497	0	0	40	19	
0	0	0	0	0	499	495	1	0	40	19	
1	0	0	0	0	471	501	2	0	40	19	
2	0	0	0	0	503	508	0	0	40	19	
3	0	0	0	0	526	515	2	0	40	19	
4	0	0	0	0	511	520	3	0	40	19	
5	0	0	0	0	485	519	1	0	40	19	
6	0	0	0	0	478	519	3	1018	40	19	
7	0	0	0	0	496	516	1	1018	40	19	
8	0	0	0	0	513	512	3	1019	40	19	
9	0	0	0	0	517	513	3	1018	40	19	
10	0	0	0	0	521	515	2	1018	40	19	
11	0	0	0	0	524	513	0	1018	40	19	
12	0	0	0	0	528	508	0	1019	40	19	
13	0	0	0	0	535	505	2	1018	40	19	
14	0	0	0	0	519	503	0	1018	40	19	
15	0	0	0	0	507	497	0	0	40	19	
0	0	0	0	0	517	494	3	0	40	19	
1	0	0	0	0	528	494	1	0	40	19	
2	0	0	0	0	525	503	0	0	40	19	
3	0	0	0	0	519	508	2	0	40	19	
4	0	0	0	0	501	516	3	0	40	19	
5	0	0	0	0	495	518	1	0	40	19	
6	0	0	0	0	514	520	1	0	40	19	
7	0	0	0	0	521	520	3	1018	40	19	
8	0	0	0	0	521	517	3	1019	40	19	
9	0	0	0	0	526	513	1	1018	40	19	
10	0	0	0	0	527	515	3	1018	40	19	
11	0	0	0	0	504	514	2	1018	40	19	
12	0	0	0	0	487	512	3	1019	40	19	
13	0	0	0	0	507	508	0	1018	40	19	
14	0	0	0	0	521	504	2	126	40	19	
15	0	0	0	0	526	499	1	0	40	19	
0	0	0	0	0	528	497	3	0	40	19	
1	0	0	0	0	526	492	2	0	40	19	
2	0	0	0	0	495	498	2	0	40	19	
3	0	0	0	0	482	507	0	0	40	19	
4	0	0	0	0	489	513	3	0	40	19	
5	0	0	0	0	508	517	2	0	40	19	
6	0	0	0	0	513	520	2	0	40	19	
7	0	0	0	0	512	521	0	0	40	19	
8	0	0	0	0	515	519	2	1019	40	19	
9	0	0	0	0	515	518	3	1019	40	19	
10	0	0	0	0	515	513	0	1018	40	19	
11	0	0	0	0	514	512	2	1018	40	19	
12	0	0	0	0	516	514	3	1019	40	19	
13	0	0	0	0	517	511	1	1018	40	19	
14	0	0	0	0	519	508	2	1018	40	19	
15	0	0	0	0	522	503	2	666	40	19	
0	0	0	0	0	518	497	2	0	40	19	
1	0	0	0	0	515	495	0	0	40	19	
2	0	0	0	0	521	494	2	0	40	19	
3	0	0	0	0	516	499	0	0	40	19	
4	0	0	0	0	512	507	1	0	40	19	
5	0	0	0	0	504	511	3	0	40	19	
6	0	0	0	0	504	516	3	0	40	19	
7	0	0	0	0	503	520	1	0	40	19	
8	0	0	0	0	498	524	4	1019	40	19	
9	0	0	0	0	508	519	3	1018	40	19	
10	0	0	0	0	518	516	1	1018	40	19	
11	0	0	0	0	513	515	1	1018	40	19	
12	0	0	0	0	515	518	3	1019	40	19	
13	0	0	0	0	515	515	2	1019	40	19	
14	0	0	0	0	519	513	0	1018	40	19	
15	0	0	0	0	519	508	2	1018	40	19	
0	0	0	0	0	524	503	2	1019	40	19	
1	0	0	0	0	523	497	1	0	40	19	
2	0	0	0	0	516	493	0	0	40	19	
3	0	0	0	0	511	495	1	0	40	19	
4	0	0	0	0	512	502	2	0	40	19	
5	0	0	0	0	503	508	0	0	40	19	
6	0	0	0	0	499	515	3	0	40	19	
7	0	0	0	0	517	517	3	0	40	19	
8	0	0	0	0	528	521	2	0	40	19	
9	0	0	0	0	532	521	1	1018	40	19	
10	0	0	0	0	535	519	3	1018	40	19	
11	0	0	0	0	530	515	2	1018	40	19	
12	0	0	0	0	519	514	3	1019	40	19	
13	0	0	0	0	504	515	3	1018	40	19	
14	0	0	0	0	480	514	3	1018	40	19	
15	0	0	0	0	457	513	0	1018	40	19	
0	0	0	0	0	463	507	1	1018	40	19	
1	0	0	0	0	476	502	2	1018	40	19	
2	0	0	0	0	506	496	2	0	40	19	
3	0	0	0	0	526	493	0	0	40	19	
4	0	0	0	0	531	497	2	0	40	19	
5	0	0	0	0	524	505	2	0	40	19	
6	0	0	0	0	515	512	3	0	40	19	
7	0	0	0	0	512	516	1	0	40	19	
8	0	0	0	0	514	521	4	0	40	19	
9	0	0	0	0	514	521	3	0	40	19	
10	0	0	0	0	515	521	4	1018	40	19	
11	0	0	0	0	518	520	2	1018	40	19	
12	0	0	0	0	522	518	3	1019	40	19	
13	0	0	0	0	515	517	1	1018	40	19	
14	0	0	0	0	515	516	3	1018	40	19	
15	0	0	0	0	521	515	2	1018	40	19	
0	0	0	0	0	523	511	3	1018	40	19	
1	0	0	0	0	524	506	0	1018	40	19	
2	0	0	0	0	527	499	2	0	40	19	
3	0	0	0	0	526	495	2	0	40	19	
4	0	0	0	0	525	494	2	0	40	19	
5	0	0	0	0	515	499	0	0	40	19	
6	0	0	0	0	507	507	0	0	40	19	
7	0	0	0	0	504	515	2	0	40	19	
8	0	0	0	0	507	520	3	0	40	19	
9	0	0	0	0	508	520	2	0	40	19	
10	0	0	0	0	506	519	1	1018	40	19	
11	0	0	0	0	509	518	2	1018	40	19	
12	0	0	0	0	515	513	3	1018	40	19	
13	0	0	0	0	512	513	2	1018	40	19	
14	0	0	0	0	509	517	0	1018	40	19	
15	0	0	0	0	500	514	2	1018	40	19	
0	0	0	0	0	506	511	3	1019	40	19	
1	0	0	0	0	512	507	2	1018	40	19	
2	0	0	0	0	524	503	0	497	40	19	
3	0	0	0	0	529	498	0	0	40	19	
4	0	0	0	0	527	495	2	0	40	19	
5	0	0	0	0	522	496	1	0	40	19	
6	0	0	0	0	517	502	1	0	40	19	
7	0	0	0	0	511	511	0	0	40	19	
8	0	0	0	0	500	517	3	0	40	19	
9	0	0	0	0	496	521	3	0	40	19	
10	0	0	0	0	503	523	1	0	40	19	
11	0	0	0	0	507	521	1	1018	40	19	
12	0	0	0	0	516	521	4	1019	40	19	
13	0	0	0	0	519	517	3	1018	40	19	
14	0	0	0	0	509	517	2	1018	40	19	
15	0	0	0	0	510	517	0	1018	40	19	
0	0	0	0	0	513	514	2	1019	40	19	
1	0	0	0	0	504	511	2	1018	40	19	
2	0	0	0	0	502	506	1	1018	40	19	
3	0	0	0	0	511	500	0	543	40	19	
4	0	0	0	0	521	495	0	0	40	19	
5	0	0	0	0	523	492	2	0	40	19	
6	0	0	0	0	520	497	0	0	40	19	
7	0	0	0	0	518	505	0	0	40	19	
8	0	0	0	0	509	511	1	0	40	19	
9	0	0	0	0	504	518	2	0	40	19	
10	0	0	0	0	500	524	1	0	40	19	
11	0	0	0	0	502	525	3	0	40	19	
12	0	0	0	0	511	523	2	1018	40	19	
13	0	0	0	0	516	518	2	1019	40	19	
14	0	0	0	0	527	515	0	1018	40	19	
15	0	0	0	0	527	515	2	1018	40	19	
0	0	0	0	0	518	513	3	1018	40	19	
1	0	0	0	0	515	511	0	1018	40	19	
2	0	0	0	0	511	508	2	1018	40	19	
3	0	0	0	0	520	505	1	1018	40	19	
4	0	0	0	0	527	500	1	0	40	19	
5	0	0	0	0	515	495	0	0	40	19	
6	0	0	0	0	511	493	2	0	40	19	
7	0	0	0	0	506	500	2	0	40	19	
8	0	0	0	0	500	508	1	0	40	19	
9	0	0	0	0	501	514	1	0	40	19	
10	0	0	0	0	501	518	3	0	40	19	
11	0	0	0	0	489	521	1	0	40	19	
12	0	0	0	0	483	522	4	757	40	19	
13	0	0	0	0	502	519	3	1018	40	19	
14	0	0	0	0	516	516	2	1018	40	19	
15	0	0	0	0	518	516	0	1018	40	19	
0	0	0	0	0	514	515	1	1018	40	19	
1	0	0	0	0	516	514	3	1019	40	19	
2	0	0	0	0	522	513	0	1018	40	19	
3	0	0	0	0	527	510	0	1018	40	19	
4	0	0	0	0	527	502	1	0	40	19	
5	0	0	0	0	527	497	1	0	40	19	
6	0	0	0	0	523	493	0	0	40	19	
7	0	0	0	0	521	494	1	0	40	19	
8	0	0	0	0	518	504	1	0	40	19	
9	0	0	0	0	505	508	1	0	40	19	
10	0	0	0	0	503	516	0	0	40	19	
11	0	0	0	0	501	520	2	0	40	19	
12	0	0	0	0	518	524	2	0	40	19	
13	0	0	0	0	516	522	1	1018	40	19	
14	0	0	0	0	515	518	3	1018	40	19	
15	0	0	0	0	529	514	2	1018	40	19	
0	0	0	0	0	524	515	3	1017	40	19	
1	0	0	0	0	508	516	2	1018	40	19	
2	0	0	0	0	507	515	3	1018	40	19	
3	0	0	0	0	525	512	0	1018	40	19	
4	0	0	0	0	524	508	3	1019	40	19	
5	0	0	0	0	515	501	2	0	40	19	
6	0	0	0	0	505	497	0	0	40	19	
7	0	0	0	0	507	495	0	0	40	19	
8	0	0	0	0	504	499	3	0	40	19	
9	0	0	0	0	501	504	2	0	40	19	
10	0	0	0	0	484	510	0	0	40	19	
11	0	0	0	0	490	515	2	0	40	19	
12	0	0	0	0	495	519	2	0	40	19	
13	0	0	0	0	502	520	1	0	40	19	
14	0	0	0	0	512	519	3	1018	40	19	
15	0	0	0	0	522	516	3	1018	40	19	
0	0	0	0	0	524	512	3	1019	40	19	
1	0	0	0	0	519	515	0	1018	40	19	
2	0	0	0	0	514	518	3	1018	40	19	
3	0	0	0	0	511	514	1	1018	40	19	
4	0	0	0	0	518	512	3	1019	40	19	
5	0	0	0	0	527	506	2	1018	40	19	
6	0	0	0	0	532	501	2	0	40	19	
7	0	0	0	0	527	496	0	0	40	19	
8	0	0	0	0	521	496	3	0	40	19	
9	0	0	0	0	514	500	2	0	40	19	
10	0	0	0	0	507	506	0	0	40	19	
11	0	0	0	0	508	512	1	0	40	19	
12	0	0	0	0	502	516	2	0	40	19	
13	0	0	0	0	499	520	2	0	40	19	
14	0	0	0	0	508	523	0	0	40	19	
15	0	0	0	0	519	522	3	1018	40	19	
0	0	0	0	0	521	517	3	1019	40	19	
1	0	0	0	0	513	516	1	1018	40	19	
2	0	0	0	0	507	518	3	1018	40	19	
3	0	0	0	0	503	516	2	1018	40	19	
4	0	0	0	0	511	512	2	1018	40	19	
5	0	0	0	0	515	508	0	563	40	19	
6	0	0	0	0	517	502	2	0	40	19	
7	0	0	0	0	525	498	1	0	40	19	
8	0	0	0	0	531	492	2	0	40	19	
9	0	0	0	0	528	492	0	0	40	19	
10	0	0	0	0	521	501	2	0	40	19	
11	0	0	0	0	507	508	2	0	40	19	
12	0	0	0	0	506	514	1	0	40	19	
13	0	0	0	0	507	517	1	0	40	19	
14	0	0	0	0	506	521	2	0	40	19	
15	0	0	0	0	506	520	3	847	40	19	
0	0	0	0	0	493	518	3	1019	40	19	
1	0	0	0	0	502	513	1	1018	40	19	
2	0	0	0	0	507	513	2	1019	40	19	
3	0	0	0	0	514	516	1	1018	40	19	
4	0	0	0	0	518	514	2	1018	40	19	
5	0	0	0	0	518	512	2	1018	40	19	
6	0	0	0	0	525	508	2	345	40	19	
7	0	0	0	0	527	503	0	0	40	19	
8	0	0	0	0	527	498	3	0	40	19	
9	0	0	0	0	523	494	2	0	40	19	
10	0	0	0	0	505	498	1	0	40	19	
11	0	0	0	0	484	506	0	0	40	19	
12	0	0	0	0	493	512	3	0	40	19	
13	0	0	0	0	508	520	2	0	40	19	
14	0	0	0	0	507	523	1	0	40	19	
15	0	0	0	0	511	525	1	0	40	19	
0	0	0	0	0	523	520	3	1018	40	19	
1	0	0	0	0	524	518	2	1019	40	19	
2	0	0	0	0	525	516	0	1018	40	19	
3	0	0	0	0	519	517	2	1018	40	19	
4	0	0	0	0	510	517	3	1019	40	19	
5	0	0	0	0	505	513	1	1018	40	19	
6	0	0	0	0	497	509	2	1018	40	19	
7	0	0	0	0	497	505	1	382	40	19	
8	0	0	0	0	504	500	1	0	40	19	
9	0	0	0	0	519	495	0	0	40	19	
10	0	0	0	0	529	493	2	0	40	19	
11	0	0	0	0	521	499	1	0	40	19	
12	0	0	0	0	513	507	2	0	40	19	
13	0	0	0	0	511	511	2	0	40	19	
14	0	0	0	0	505	516	3	0	40	19	
15	0	0	0	0	529	519	1	0	40	19	
0	0	0	0	0	530	521	4	647	40	19	
1	0	0	0	0	524	519	3	1018	40	19	
2	0	0	0	0	518	515	1	1018	40	19	
3	0	0	0	0	511	512	1	1018	40	19	
4	0	0	0	0	505	511	2	1019	40	19	
5	0	0	0	0	501	511	2	1019	40	19	
6	0	0	0	0	492	511	0	1018	40	19	
7	0	0	0	0	485	508	2	1018	40	19	
8	0	0	0	0	507	504	2	0	40	19	
9	0	0	0	0	529	496	0	0	40	19	
10	0	0	0	0	533	492	2	0	40	19	
11	0	0	0	0	527	495	1	0	40	19	
12	0	0	0	0	521	499	2	0	40	19	
13	0	0	0	0	507	505	0	0	40	19	
14	0	0	0	0	495	513	3	0	40	19	
15	0	0	0	0	487	515	1	0	40	19	
0	0	0	0	0	486	519	1	0	40	19	
1	0	0	0	0	493	519	3	1018	40	19	
2	0	0	0	0	505	518	3	1018	40	19	
3	0	0	0	0	512	515	1	1018	40	19	
4	0	0	0	0	519	516	3	1019	40	19	
5	0	0	0	0	519	514	2	1018	40	19	
6	0	0	0	0	521	512	1	1018	40	19	
7	0	0	0	0	518	509	0	1018	40	19	
8	0	0	0	0	523	507	1	1018	40	19	
9	0	0	0	0	524	499	2	0	40	19	
10	0	0	0	0	525	496	0	0	40	19	
11	0	0	0	0	538	492	2	0	40	19	
12	0	0	0	0	537	495	3	0	40	19	
13	0	0	0	0	525	500	1	0	40	19	
14	0	0	0	0	510	505	1	0	40	19	
15	0	0	0	0	501	513	2	0	40	19	
0	0	0	0	0	501	515	3	0	40	19	
1	0	0	0	0	500	517	2	0	40	19	
2	0	0	0	0	502	517	4	1018	40	19	
3	0	0	0	0	504	515	1	1018	40	19	
4	0	0	0	0	508	514	4	1019	40	19	
5	0	0	0	0	519	515	2	1018	40	19	
6	0	0	0	0	514	515	1	1018	40	19	
7	0	0	0	0	513	513	0	1018	40	19	
8	0	0	0	0	511	510	1	1019	40	19	
9	0	0	0	0	523	504	1	1018	40	19	
10	0	0	0	0	529	501	0	0	40	19	
11	0	0	0	0	510	497	2	0	40	19	
12	0	0	0	0	514	495	1	0	40	19	
13	0	0	0	0	517	499	0	0	40	19	
14	0	0	0	0	512	507	2	0	40	19	
15	0	0	0	0	507	513	1	0	40	19	
0	0	0	0	0	502	517	3	0	40	19	
1	0	0	0	0	489	520	3	0	40	19	
2	0	0	0	0	498	523	3	0	40	19	
3	0	0	0	0	501	520	1	1018	40	19	
4	0	0	0	0	518	518	3	1018	40	19	
5	0	0	0	0	514	516	3	1018	40	19	
6	0	0	0	0	517	517	1	1018	40	19	
7	0	0	0	0	522	517	2	1018	40	19	
8	0	0	0	0	513	514	1	1019	40	19	
9	0	0	0	0	512	509	1	1018	40	19	
10	0	0	0	0	523	505	0	0	40	19	
11	0	0	0	0	528	499	1	0	40	19	
12	0	0	0	0	525	495	2	0	40	19	
13	0	0	0	0	522	493	0	0	40	19	
14	0	0	0	0	515	499	2	0	40	19	
15	0	0	0	0	507	508	2	0	40	19	
0	0	0	0	0	503	517	3	0	40	19	
1	0	0	0	0	496	520	3	0	40	19	
2	0	0	0	0	498	524	3	0	40	19	
3	0	0	0	0	506	524	1	1018	40	19	
4	0	0	0	0	514	522	4	1019	40	19	
5	0	0	0	0	517	517	3	1018	40	19	
6	0	0	0	0	512	518	1	1019	40	19	
7	0	0	0	0	504	519	0	1018	40	19	
8	0	0	0	0	508	516	2	1019	40	19	
9	0	0	0	0	516	514	2	1018	40	19	
10	0	0	0	0	526	510	0	1018	40	19	
11	0	0	0	0	529	504	2	1018	40	19	
12	0	0	0	0	528	499	0	0	40	19	
13	0	0	0	0	526	495	0	0	40	19	
14	0	0	0	0	521	497	2	0	40	19	
15	0	0	0	0	513	503	2	0	40	19	
0	0	0	0	0	508	510	2	0	40	19	
1	0	0	0	0	504	515	0	0	40	19	
2	0	0	0	0	495	519	3	0	40	19	
3	0	0	0	0	493	521	1	0	40	19	
4	0	0	0	0	499	521	4	1019	40	19	
5	0	0	0	0	512	515	3	1018	40	19	
6	0	0	0	0	516	512	1	1018	40	19	
7	0	0	0	0	511	516	0	1018	40	19	
8	0	0	0	0	509	515	2	1018	40	19	
9	0	0	0	0	512	512	2	1018	40	19	
10	0	0	0	0	518	509	0	1018	40	19	
11	0	0	0	0	520	508	1	1018	40	19	
12	0	0	0	0	523	501	1	419	40	19	
13	0	0	0	0	525	496	0	0	40	19	
14	0	0	0	0	523	493	2	0	40	19	
15	0	0	0	0	519	500	2	0	40	19	
0	0	0	0	0	512	507	1	0	40	19	
1	0	0	0	0	505	512	1	0	40	19	
2	0	0	0	0	506	516	3	0	40	19	
3	0	0	0	0	499	518	1	0	40	19	
4	0	0	0	0	492	519	4	545	40	19	
5	0	0	0	0	502	517	2	1018	40	19	
6	0	0	0	0	510	514	2	1018	40	19	
7	0	0	0	0	513	514	0	1018	40	19	
8	0	0	0	0	529	515	4	1019	40	19	
9	0	0	0	0	534	513	3	1019	40	19	
10	0	0	0	0	527	512	0	1018	40	19	
11	0	0	0	0	520	509	2	1018	40	19	
12	0	0	0	0	517	503	2	1018	40	19	
13	0	0	0	0	515	496	0	0	40	19	
14	0	0	0	0	515	494	0	0	40	19	
15	0	0	0	0	510	496	1	0	40	19	
0	0	0	0	0	494	502	2	0	40	19	
1	0	0	0	0	499	507	0	0	40	19	
2	0	0	0	0	503	515	3	0	40	19	
3	0	0	0	0	507	519	2	0	40	19	
4	0	0	0	0	519	521	3	0	40	19	
5	0	0	0	0	513	520	3	1018	40	19	
6	0	0	0	0	513	517	3	1018	40	19	
7	0	0	0	0	518	513	1	1018	40	19	
8	0	0	0	0	518	514	3	1019	40	19	
9	0	0	0	0	511	517	2	1018	40	19	
10	0	0	0	0	519	515	1	1018	40	19	
11	0	0	0	0	521	511	0	1018	40	19	
12	0	0	0	0	513	505	3	577	40	19	
13	0	0	0	0	512	498	2	0	40	19	
14	0	0	0	0	501	494	0	0	40	19	
15	0	0	0	0	515	491	2	0	40	19	
0	0	0	0	0	524	496	2	0	40	19	
1	0	0	0	0	513	501	0	0	40	19	
2	0	0	0	0	488	509	3	0	40	19	
3	0	0	0	0	482	517	2	0	40	19	
4	0	0	0	0	491	519	3	0	40	19	
5	0	0	0	0	500	520	1	0	40	19	
6	0	0	0	0	506	519	3	1018	40	19	
7	0	0	0	0	511	518	2	1018	40	19	
8	0	0	0	0	519	515	3	1019	40	19	
9	0	0	0	0	531	515	3	1018	40	19	
10	0	0	0	0	533	516	2	1018	40	19	
11	0	0	0	0	534	512	0	1018	40	19	
12	0	0	0	0	528	509	1	1018	40	19	
13	0	0	0	0	527	504	2	1018	40	19	
14	0	0	0	0	530	499	0	244	40	19	
15	0	0	0	0	525	497	2	0	40	19	
0	0	0	0	0	520	495	1	0	40	19	
1	0	0	0	0	506	499	1	0	40	19	
2	0	0	0	0	499	505	1	0	40	19	
3	0	0	0	0	483	513	2	0	40	19	
4	0	0	0	0	487	520	2	0	40	19	
5	0	0	0	0	493	521	1	0	40	19	
6	0	0	0	0	507	521	3	0	40	19	
7	0	0	0	0	521	520	2	1018	40	19	
8	0	0	0	0	530	517	4	1019	40	19	
9	0	0	0	0	535	514	3	1018	40	19	
10	0	0	0	0	521	515	3	1018	40	19	
11	0	0	0	0	520	515	0	1018	40	19	
12	0	0	0	0	521	512	3	1019	40	19	
13	0	0	0	0	530	508	2	1018	40	19	
14	0	0	0	0	528	504	1	0	40	19	
15	0	0	0	0	512	499	0	0	40	19	
0	0	0	0	0	508	497	3	0	40	19	
1	0	0	0	0	503	495	1	0	40	19	
2	0	0	0	0	493	502	1	0	40	19	
3	0	0	0	0	492	508	0	0	40	19	
4	0	0	0	0	486	515	1	0	40	19	
5	0	0	0	0	485	519	2	0	40	19	
6	0	0	0	0	474	522	1	0	40	19	
7	0	0	0	0	485	522	0	524	40	19	
8	0	0	0	0	507	520	2	1019	40	19	
9	0	0	0	0	523	515	3	1018	40	19	
10	0	0	0	0	527	515	1	1019	40	19	
11	0	0	0	0	527	518	2	1018	40	19	
12	0	0	0	0	528	513	3	1019	40	19	
13	0	0	0	0	524	512	1	1018	40	19	
14	0	0	0	0	531	508	0	505	40	19	
15	0	0	0	0	529	501	2	0	40	19	
0	0	0	0	0	526	498	1	0	40	19	
1	0	0	0	0	528	495	0	0	40	19	
2	0	0	0	0	524	497	2	0	40	19	
3	0	0	0	0	516	504	1	0	40	19	
4	0	0	0	0	512	512	3	0	40	19	
5	0	0	0	0	500	518	2	0	40	19	
6	0	0	0	0	496	520	3	0	40	19	
7	0	0	0	0	499	522	1	0	40	19	
8	0	0	0	0	503	521	4	1019	40	19	
9	0	0	0	0	512	518	3	1019	40	19	
10	0	0	0	0	516	514	1	1018	40	19	
11	0	0	0	0	519	515	1	1018	40	19	
12	0	0	0	0	517	514	2	1018	40	19	
13	0	0	0	0	519	511	2	1019	40	19	
14	0	0	0	0	516	509	0	1019	40	19	
15	0	0	0	0	522	506	1	1018	40	19	
0	0	0	0	0	522	501	2	178	40	19	
1	0	0	0	0	519	497	0	0	40	19	
2	0	0	0	0	516	494	2	0	40	19	
3	0	0	0	0	512	497	2	0	40	19	
4	0	0	0	0	502	504	1	0	40	19	
5	0	0	0	0	499	510	1	0	40	19	
6	0	0	0	0	499	516	3	0	40	19	
7	0	0	0	0	498	519	1	0	40	19	
8	0	0	0	0	500	518	1	0	40	19	
9	0	0	0	0	508	517	2	1018	40	19	
10	0	0	0	0	515	514	1	1018	40	19	
11	0	0	0	0	518	514	2	1018	40	19	
12	0	0	0	0	515	514	3	1018	40	19	
13	0	0	0	0	519	513	1	1019	40	19	
14	0	0	0	0	524	513	0	1018	40	19	
15	0	0	0	0	523	510	2	1017	40	19	
0	0	0	0	0	523	503	2	0	40	19	
1	0	0	0	0	525	498	1	0	40	19	
2	0	0	0	0	524	494	0	0	40	19	
3	0	0	0	0	525	495	1	0	40	19	
4	0	0	0	0	518	500	2	0	40	19	
5	0	0	0	0	503	507	1	0	40	19	
6	0	0	0	0	493	513	1	0	40	19	
7	0	0	0	0	488	515	2	0	40	19	
8	0	0	0	0	493	518	3	0	40	19	
9	0	0	0	0	502	519	2	1018	40	19	
10	0	0	0	0	506	518	2	1018	40	19	
11	0	0	0	0	512	514	3	1018	40	19	
12	0	0	0	0	518	513	3	1018	40	19	
13	0	0	0	0	525	513	1	1018	40	19	
14	0	0	0	0	519	512	0	1018	40	19	
15	0	0	0	0	519	511	2	1018	40	19	
0	0	0	0	0	521	507	2	1019	40	19	
1	0	0	0	0	518	500	0	0	40	19	
2	0	0	0	0	519	497	0	0	40	19	
3	0	0	0	0	522	495	2	0	40	19	
4	0	0	0	0	521	495	2	0	40	19	
5	0	0	0	0	508	504	1	0	40	19	
6	0	0	0	0	506	510	0	0	40	19	
7	0	0	0	0	502	517	2	0	40	19	
8	0	0	0	0	499	519	1	0	40	19	
9	0	0	0	0	499	518	2	0	40	19	
10	0	0	0	0	508	520	1	1018	40	19	
11	0	0	0	0	505	514	3	1018	40	19	
12	0	0	0	0	495	511	3	1019	40	19	
13	0	0	0	0	501	513	1	1018	40	19	
14	0	0	0	0	507	514	1	1018	40	19	
15	0	0	0	0	508	513	2	1018	40	19	
0	0	0	0	0	519	509	1	1019	40	19	
1	0	0	0	0	529	504	1	1018	40	19	
2	0	0	0	0	533	499	0	0	40	19	
3	0	0	0	0	533	494	2	0	40	19	
4	0	0	0	0	528	491	1	0	40	19	
5	0	0	0	0	521	495	1	0	40	19	
6	0	0	0	0	514	504	0	0	40	19	
7	0	0	0	0	514	509	2	0	40	19	
8	0	0	0	0	502	515	1	0	40	19	
9	0	0	0	0	499	517	1	0	40	19	
10	0	0	0	0	505	521	3	0	40	19	
11	0	0	0	0	511	519	3	1018	40	19	
12	0	0	0	0	521	516	3	1018	40	19	
13	0	0	0	0	511	516	1	1018	40	19	
14	0	0	0	0	504	517	2	1018	40	19	
15	0	0	0	0	507	517	1	1018	40	19	
0	0	0	0	0	507	514	3	1019	40	19	
1	0	0	0	0	508	510	2	1018	40	19	
2	0	0	0	0	514	507	1	0	40	19	
3	0	0	0	0	517	503	0	0	40	19	
4	0	0	0	0	521	498	2	0	40	19	
5	0	0	0	0	528	498	2	0	40	19	
6	0	0	0	0	533	505	1	0	40	19	
7	0	0	0	0	526	510	0	0	40	19	
8	0	0	0	0	519	514	3	0	40	19	
9	0	0	0	0	511	515	3	0	40	19	
10	0	0	0	0	504	519	1	0	40	19	
11	0	0	0	0	507	519	1	552	40	19	
12	0	0	0	0	500	514	3	1018	40	19	
13	0	0	0	0	503	510	2	1018	40	19	
14	0	0	0	0	496	513	0	1018	40	19	
15	0	0	0	0	483	515	1	1018	40	19	
0	0	0	0	0	496	513	1	1019	40	19	
1	0	0	0	0	502	511	0	1018	40	19	
2	0	0	0	0	504	508	2	0	40	19	
3	0	0	0	0	519	502	2	0	40	19	
4	0	0	0	0	529	498	1	0	40	19	
5	0	0	0	0	525	493	1	0	40	19	
6	0	0	0	0	526	498	2	0	40	19	
7	0	0	0	0	523	505	0	0	40	19	
8	0	0	0	0	517	511	3	0	40	19	
9	0	0	0	0	511	516	2	0	40	19	
10	0	0	0	0	506	520	1	0	40	19	
11	0	0	0	0	501	523	1	0	40	19	
12	0	0	0	0	508	520	2	1019	40	19	
13	0	0	0	0	511	516	3	1019	40	18	
14	0	0	0	0	513	513	0	1018	40	19	
15	0	0	0	0	515	513	2	1018	40	18	
0	0	0	0	0	513	514	3	1019	40	19	
1	0	0	0	0	515	513	1	1018	40	18	
2	0	0	0	0	512	510	2	1018	40	18	
3	0	0	0	0	519	507	2	1018	40	18	
4	0	0	0	0	527	500	3	442	40	18	
5	0	0	0	0	529	496	0	0	40	18	
6	0	0	0	0	526	493	2	0	40	18	
7	0	0	0	0	515	497	1	0	40	18	
8	0	0	0	0	508	504	1	0	40	18	
9	0	0	0	0	513	510	2	0	40	18	
10	0	0	0	0	512	515	3	0	40	18	
11	0	0	0	0	510	519	0	0	40	18	
12	0	0	0	0	511	519	4	0	40	18	
13	0	0	0	0	509	518	3	1018	40	18	
14	0	0	0	0	510	514	1	1018	40	18	
15	0	0	0	0	507	513	1	1018	40	18	
0	0	0	0	0	506	515	3	1019	40	18	
1	0	0	0	0	503	514	1	1018	40	18	
2	0	0	0	0	502	511	3	1018	40	18	
3	0	0	0	0	507	508	2	1018	40	18	
4	0	0	0	0	519	505	2	396	40	18	
5	0	0	0	0	527	500	0	0	40	18	
6	0	0	0	0	529	496	2	0	40	18	
7	0	0	0	0	530	496	0	0	40	18	
8	0	0	0	0	518	502	3	0	40	18	
9	0	0	0	0	504	509	2	0	40	18	
10	0	0	0	0	505	515	1	0	40	18	
11	0	0	0	0	498	519	0	0	40	18	
12	0	0	0	0	498	520	1	0	40	18	
13	0	0	0	0	507	518	3	1018	40	18	
14	0	0	0	0	509	514	2	1018	40	18	
15	0	0	0	0	508	511	0	1018	40	18	
0	0	0	0	0	511	512	1	1018	40	18	
1	0	0	0	0	509	512	2	1018	40	18	
2	0	0	0	0	510	514	1	1018	40	18	
3	0	0	0	0	515	511	0	1018	40	18	
4	0	0	0	0	525	507	3	666	40	18	
5	0	0	0	0	537	500	2	0	40	18	
6	0	0	0	0	541	497	0	0	40	18	
7	0	0	0	0	534	495	0	0	40	18	
8	0	0	0	0	517	496	2	0	40	18	
9	0	0	0	0	504	503	2	0	40	18	
10	0	0	0	0	491	509	1	0	40	18	
11	0	0	0	0	488	516	0	0	40	18	
12	0	0	0	0	494	520	3	0	40	18	
13	0	0	0	0	502	522	3	0	40	18	
14	0	0	0	0	497	520	1	1018	40	18	
15	0	0	0	0	496	518	1	1018	40	18	
0	0	0	0	0	502	512	2	1019	40	18	
1	0	0	0	0	507	511	3	1018	40	18	
2	0	0	0	0	511	513	1	1018	40	18	
3	0	0	0	0	522	513	2	1018	40	18	
4	0	0	0	0	524	510	1	1019	40	18	
5	0	0	0	0	526	507	1	1018	40	18	
6	0	0	0	0	526	502	0	0	40	18	
7	0	0	0	0	527	499	2	0	40	18	
8	0	0	0	0	519	495	1	0	40	18	
9	0	0	0	0	514	499	0	0	40	18	
10	0	0	0	0	508	506	1	0	40	18	
11	0	0	0	0	506	513	1	0	40	18	
12	0	0	0	0	507	517	3	0	40	18	
13	0	0	0	0	507	519	3	0	40	18	
14	0	0	0	0	505	522	2	0	40	18	
15	0	0	0	0	506	521	0	1018	40	18	
0	0	0	0	0	507	516	4	1019	40	18	
1	0	0	0	0	520	513	3	1018	40	18	
2	0	0	0	0	523	514	0	1018	40	18	
3	0	0	0	0	519	514	2	1018	40	18	
4	0	0	0	0	519	514	1	1019	40	18	
5	0	0	0	0	517	510	0	1018	40	18	
6	0	0	0	0	512	508	2	258	40	18	
7	0	0	0	0	517	503	2	0	40	18	
8	0	0	0	0	527	501	2	0	40	18	
9	0	0	0	0	531	497	0	0	40	18	
10	0	0	0	0	513	504	2	0	40	18	
11	0	0	0	0	506	510	1	0	40	18	
12	0	0	0	0	502	516	3	0	40	18	
13	0	0	0	0	504	517	3	0	40	18	
14	0	0	0	0	508	518	3	0	40	18	
15	0	0	0	0	509	517	2	1011	40	18	
0	0	0	0	0	502	512	3	1018	40	18	
1	0	0	0	0	503	510	3	1018	40	18	
2	0	0	0	0	502	512	3	1018	40	18	
3	0	0	0	0	507	516	1	1018	40	18	
4	0	0	0	0	507	512	2	1018	40	18	
5	0	0	0	0	500	510	2	1018	40	18	
6	0	0	0	0	514	506	3	1018	40	18	
7	0	0	0	0	531	501	0	0	40	18	
8	0	0	0	0	535	496	2	0	40	18	
9	0	0	0	0	533	495	2	0	40	18	
10	0	0	0	0	523	496	2	0	40	18	
11	0	0	0	0	515	502	1	0	40	18	
12	0	0	0	0	509	508	3	0	40	18	
13	0	0	0	0	501	514	3	0	40	18	
14	0	0	0	0	500	519	2	0	40	18	
15	0	0	0	0	498	520	0	0	40	18	
0	0	0	0	0	497	521	4	1019	40	18	
1	0	0	0	0	500	516	3	1018	40	18	
2	0	0	0	0	512	512	1	1018	40	18	
3	0	0	0	0	511	513	2	1018	40	18	
4	0	0	0	0	505	513	2	1019	40	18	
5	0	0	0	0	508	510	0	1018	40	18	
6	0	0	0	0	516	510	2	1018	40	18	
7	0	0	0	0	524	504	2	1018	40	18	
8	0	0	0	0	527	500	2	0	40	18	
9	0	0	0	0	530	496	0	0	40	18	
10	0	0	0	0	530	494	2	0	40	18	
11	0	0	0	0	523	499	2	0	40	18	
12	0	0	0	0	518	506	2	0	40	18	
13	0	0	0	0	511	512	0	0	40	18	
14	0	0	0	0	508	517	2	0	40	18	
15	0	0	0	0	511	523	3	0	40	18	
0	0	0	0	0	523	523	3	430	40	18	
1	0	0	0	0	526	521	1	1018	40	18	
2	0	0	0	0	528	517	3	1018	40	18	
3	0	0	0	0	521	516	3	1018	40	18	
4	0	0	0	0	516	517	2	1019	40	18	
5	0	0	0	0	511	516	0	1018	40	18	
6	0	0	0	0	508	513	2	1018	40	18	
7	0	0	0	0	503	510	2	1018	40	18	
8	0	0	0	0	504	504	2	97	40	18	
9	0	0	0	0	499	499	0	0	40	18	
10	0	0	0	0	501	496	2	0	40	18	
11	0	0	0	0	501	496	2	0	40	19	
12	0	0	0	0	503	501	1	0	40	19	
13	0	0	0	0	503	508	0	0	40	19	
14	0	0	0	0	497	514	3	0	40	19	
15	0	0	0	0	505	519	2	0	40	19	
0	0	0	0	0	504	519	2	0	40	19	
1	0	0	0	0	505	519	1	1017	40	19	
2	0	0	0	0	512	519	3	1018	40	19	
3	0	0	0	0	516	515	3	1018	40	19	
4	0	0	0	0	516	515	2	1019	40	19	
5	0	0	0	0	516	515	0	1018	40	19	
6	0	0	0	0	515	512	2	1018	40	19	
7	0	0	0	0	518	511	2	1018	40	19	
8	0	0	0	0	524	505	1	519	40	19	
9	0	0	0	0	527	501	0	0	40	19	
10	0	0	0	0	529	496	2	0	40	19	
11	0	0	0	0	527	492	2	0	40	19	
12	0	0	0	0	525	495	1	0	40	19	
13	0	0	0	0	514	501	0	0	40	19	
14	0	0	0	0	511	509	2	0	40	19	
15	0	0	0	0	504	517	1	0	40	19	
0	0	0	0	0	504	521	3	0	40	19	
1	0	0	0	0	506	521	1	0	40	19	
2	0	0	0	0	505	522	3	1018	40	19	
3	0	0	0	0	513	520	3	1018	40	19	
4	0	0	0	0	516	516	1	1019	40	19	
5	0	0	0	0	511	516	0	1018	40	19	
6	0	0	0	0	507	517	2	1018	40	19	
7	0	0	0	0	510	514	2	1018	40	19	
8	0	0	0	0	512	510	3	1018	40	19	
9	0	0	0	0	516	506	0	703	40	19	
10	0	0	0	0	518	499	2	0	40	19	
11	0	0	0	0	520	495	1	0	40	19	
12	0	0	0	0	521	492	3	0	40	19	
13	0	0	0	0	511	496	2	0	40	19	
14	0	0	0	0	506	503	1	0	40	19	
15	0	0	0	0	505	508	0	0	40	19	
0	0	0	0	0	506	513	3	0	40	19	
1	0	0	0	0	507	516	3	0	40	19	
2	0	0	0	0	507	517	1	675	40	19	
3	0	0	0	0	511	519	2	1018	40	19	
4	0	0	0	0	515	515	3	1018	40	19	
5	0	0	0	0	515	513	1	1018	40	19	
6	0	0	0	0	513	514	1	1018	40	19	
7	0	0	0	0	513	515	2	1018	40	19	
8	0	0	0	0	514	511	2	1018	40	19	
9	0	0	0	0	511	508	0	1018	40	19	
10	0	0	0	0	519	504	2	0	40	19	
11	0	0	0	0	521	499	2	0	40	19	
12	0	0	0	0	523	495	2	0	40	19	
13	0	0	0	0	522	493	0	0	40	19	
14	0	0	0	0	512	499	2	0	40	19	
15	0	0	0	0	506	507	2	0	40	19	
0	0	0	0	0	502	512	3	0	40	19	
1	0	0	0	0	502	515	1	0	40	19	
2	0	0	0	0	503	519	2	0	40	19	
3	0	0	0	0	504	519	3	1018	40	19	
4	0	0	0	0	514	518	3	1019	40	19	
5	0	0	0	0	521	513	1	1018	40	19	
6	0	0	0	0	521	512	2	1019	40	19	
7	0	0	0	0	523	515	2	1018	40	19	
8	0	0	0	0	519	515	2	1019	40	19	
9	0	0	0	0	516	512	1	1018	40	19	
10	0	0	0	0	519	509	2	1018	40	19	
11	0	0	0	0	522	504	1	368	40	19	
12	0	0	0	0	524	498	2	0	40	19	
13	0	0	0	0	522	494	0	0	40	19	
14	0	0	0	0	513	497	2	0	40	19	
15	0	0	0	0	502	504	0	0	40	19	
0	0	0	0	0	490	510	3	0	40	19	
1	0	0	0	0	477	516	2	0	40	19	
2	0	0	0	0	487	520	1	0	40	19	
3	0	0	0	0	502	521	0	0	40	19	
4	0	0	0	0	507	519	4	1019	40	19	
5	0	0	0	0	513	514	3	1019	40	19	
6	0	0	0	0	517	512	0	1018	40	19	
7	0	0	0	0	513	514	2	1018	40	19	
8	0	0	0	0	519	514	3	1019	40	19	
9	0	0	0	0	524	511	1	1018	40	19	
10	0	0	0	0	530	510	3	1018	40	19	
11	0	0	0	0	527	508	2	428	40	19	
12	0	0	0	0	521	502	1	0	40	19	
13	0	0	0	0	516	499	0	0	40	19	
14	0	0	0	0	513	495	2	0	40	19	
15	0	0	0	0	509	500	1	0	40	19	
0	0	0	0	0	504	506	3	0	40	19	
1	0	0	0	0	497	510	3	0	40	19	
2	0	0	0	0	489	516	3	0	40	19	
3	0	0	0	0	493	521	0	0	40	19	
4	0	0	0	0	508	522	2	791	40	19	
5	0	0	0	0	517	520	3	1018	40	19	
6	0	0	0	0	521	518	1	1018	40	19	
7	0	0	0	0	524	515	2	1018	40	19	
8	0	0	0	0	525	515	3	1019	40	19	
9	0	0	0	0	532	517	1	1018	40	19	
10	0	0	0	0	532	512	3	1018	40	19	
11	0	0	0	0	535	507	2	716	40	19	
12	0	0	0	0	535	504	3	0	40	19	
13	0	0	0	0	527	499	0	0	40	19	
14	0	0	0	0	512	495	2	0	40	19	
15	0	0	0	0	500	495	1	0	40	19	
0	0	0	0	0	495	499	1	0	40	19	
1	0	0	0	0	492	503	2	0	40	19	
2	0	0	0	0	490	510	2	0	40	19	
3	0	0	0	0	481	516	0	0	40	19	
4	0	0	0	0	488	518	1	0	40	19	
5	0	0	0	0	498	519	3	812	40	19	
6	0	0	0	0	504	517	1	1018	40	19	
7	0	0	0	0	511	513	0	1018	40	19	
8	0	0	0	0	521	514	4	1019	40	19	
9	0	0	0	0	522	514	1	1018	40	19	
10	0	0	0	0	524	513	0	1018	40	19	
11	0	0	0	0	526	512	2	1018	40	19	
12	0	0	0	0	520	506	2	610	40	19	
13	0	0	0	0	523	501	0	0	40	19	
14	0	0	0	0	526	496	2	0	40	19	
15	0	0	0	0	531	495	1	0	40	19	
0	0	0	0	0	525	496	1	0	40	19	
1	0	0	0	0	522	504	2	0	40	19	
2	0	0	0	0	515	509	2	0	40	19	
3	0	0	0	0	510	516	0	0	40	19	
4	0	0	0	0	506	519	2	0	40	19	
5	0	0	0	0	508	520	3	0	40	19	
6	0	0	0	0	513	519	1	1018	40	19	
7	0	0	0	0	510	518	3	1018	40	19	
8	0	0	0	0	510	513	3	1019	40	19	
9	0	0	0	0	509	514	1	1018	40	19	
10	0	0	0	0	504	516	1	1018	40	19	
11	0	0	0	0	498	515	2	1018	40	19	
12	0	0	0	0	501	511	2	1018	40	19	
13	0	0	0	0	505	508	0	1018	40	19	
14	0	0	0	0	516	502	2	508	40	19	
15	0	0	0	0	523	497	2	0	40	19	
0	0	0	0	0	521	492	2	0	40	19	
1	0	0	0	0	517	495	0	0	40	19	
2	0	0	0	0	521	504	2	0	40	19	
3	0	0	0	0	516	511	0	0	40	19	
4	0	0	0	0	512	516	2	0	40	19	
5	0	0	0	0	508	519	3	0	40	19	
6	0	0	0	0	505	519	2	852	40	19	
7	0	0	0	0	511	519	0	1018	40	19	
8	0	0	0	0	504	516	3	1019	40	19	
9	0	0	0	0	504	515	3	1018	40	19	
10	0	0	0	0	507	516	1	1018	40	19	
11	0	0	0	0	510	515	2	1018	40	19	
12	0	0	0	0	516	513	1	1018	40	20	
13	0	0	0	0	520	510	2	668	40	19	
14	0	0	0	0	525	506	0	0	40	20	
15	0	0	0	0	531	500	2	0	40	20	
0	0	0	0	0	532	496	1	0	40	20	
1	0	0	0	0	532	495	1	0	40	20	
2	0	0	0	0	523	499	0	0	40	20	
3	0	0	0	0	511	506	2	0	40	20	
4	0	0	0	0	509	511	3	0	40	20	
5	0	0	0	0	503	513	2	0	40	20	
6	0	0	0	0	499	517	0	0	40	20	
7	0	0	0	0	499	518	3	1018	40	20	
8	0	0	0	0	500	516	3	1018	40	20	
9	0	0	0	0	500	513	2	1018	40	20	
10	0	0	0	0	497	513	1	1018	40	20	
11	0	0	0	0	502	513	2	1018	40	20	
12	0	0	0	0	509	511	1	1019	40	20	
13	0	0	0	0	507	510	1	1018	40	20	
14	0	0	0	0	510	508	1	1018	40	20	
15	0	0	0	0	511	503	2	154	40	20	
0	0	0	0	0	513	500	1	0	40	20	
1	0	0	0	0	525	496	0	0	40	20	
2	0	0	0	0	525	500	2	0	40	20	
3	0	0	0	0	519	507	0	0	40	20	
4	0	0	0	0	513	513	3	0	40	20	
5	0	0	0	0	515	518	2	0	40	20	
6	0	0	0	0	515	518	1	0	40	20	
7	0	0	0	0	515	519	3	0	40	20	
8	0	0	0	0	519	519	4	1019	40	20	
9	0	0	0	0	516	515	2	1019	40	20	
10	0	0	0	0	522	512	0	1018	40	20	
11	0	0	0	0	518	515	2	1018	40	20	
12	0	0	0	0	514	515	3	1019	40	20	
13	0	0	0	0	507	510	1	1018	40	20	
14	0	0	0	0	505	509	1	1018	40	20	
15	0	0	0	0	499	506	1	1018	40	20	
0	0	0	0	0	497	500	2	236	40	20	
1	0	0	0	0	501	495	0	0	40	20	
2	0	0	0	0	509	493	0	0	40	20	
3	0	0	0	0	519	497	2	0	40	20	
4	0	0	0	0	521	503	3	0	40	20	
5	0	0	0	0	518	508	0	0	40	20	
6	0	0	0	0	514	515	2	0	40	20	
7	0	0	0	0	513	517	2	0	40	20	
8	0	0	0	0	515	517	3	763	40	20	
9	0	0	0	0	518	516	3	1018	40	20	
10	0	0	0	0	518	515	3	1018	40	20	
11	0	0	0	0	515	512	0	1018	40	20	
12	0	0	0	0	510	512	1	1019	40	20	
13	0	0	0	0	508	513	3	1019	40	20	
14	0	0	0	0	501	512	0	1018	40	20	
15	0	0	0	0	499	509	0	1018	40	20	
0	0	0	0	0	499	506	4	783	40	20	
1	0	0	0	0	506	500	1	0	40	20	
2	0	0	0	0	520	495	0	0	40	20	
3	0	0	0	0	530	495	1	0	40	20	
4	0	0	0	0	527	499	2	0	40	20	
5	0	0	0	0	524	507	0	0	40	20	
6	0	0	0	0	523	512	2	0	40	20	
7	0	0	0	0	517	516	2	0	40	20	
8	0	0	0	0	505	519	3	0	40	20	
9	0	0	0	0	505	519	2	1018	40	20	
10	0	0	0	0	505	518	3	1018	40	20	
11	0	0	0	0	512	515	1	1018	40	20	
12	0	0	0	0	515	515	1	1018	40	20	
13	0	0	0	0	515	515	2	1018	40	20	
14	0	0	0	0	519	513	1	1018	40	20	
15	0	0	0	0	513	512	0	1018	40	20	
0	0	0	0	0	519	507	3	1019	40	20	
1	0	0	0	0	518	501	2	49	40	20	
2	0	0	0	0	522	498	0	0	40	20	
3	0	0	0	0	518	494	2	0	40	20	
4	0	0	0	0	515	496	3	0	40	20	
5	0	0	0	0	503	501	1	0	40	20	
6	0	0	0	0	493	507	0	0	40	20	
7	0	0	0	0	496	514	2	0	40	20	
8	0	0	0	0	491	517	2	0	40	20	
9	0	0	0	0	498	518	1	0	40	20	
10	0	0	0	0	510	518	3	1018	40	20	
11	0	0	0	0	519	515	3	1018	40	20	
12	0	0	0	0	521	515	2	1019	40	20	
13	0	0	0	0	511	514	1	1018	40	20	
14	0	0	0	0	505	515	3	1018	40	20	
15	0	0	0	0	513	512	1	1018	40	20	
0	0	0	0	0	522	511	2	1019	40	20	
1	0	0	0	0	526	507	2	794	40	20	
2	0	0	0	0	524	503	2	0	40	20	
3	0	0	0	0	519	500	0	0	40	20	
4	0	0	0	0	519	496	2	0	40	20	
5	0	0	0	0	513	499	2	0	40	20	
6	0	0	0	0	505	506	0	0	40	20	
7	0	0	0	0	499	513	0	0	40	20	
8	0	0	0	0	496	518	4	0	40	20	
9	0	0	0	0	493	522	1	0	40	20	
10	0	0	0	0	499	524	1	742	40	20	
11	0	0	0	0	514	523	3	1018	40	20	
12	0	0	0	0	524	519	3	1019	40	20	
13	0	0	0	0	524	515	0	1018	40	20	
14	0	0	0	0	524	516	3	1018	40	20	
15	0	0	0	0	528	517	2	1018	40	20	
0	0	0	0	0	527	515	2	1019	40	20	
1	0	0	0	0	526	510	0	1018	40	20	
2	0	0	0	0	527	507	2	51	40	20	
3	0	0	0	0	526	504	2	0	40	20	
4	0	0	0	0	526	500	2	0	40	20	
5	0	0	0	0	519	498	0	0	40	20	
6	0	0	0	0	511	504	2	0	40	20	
7	0	0	0	0	509	510	2	0	40	20	
8	0	0	0	0	511	515	2	0	40	20	
9	0	0	0	0	506	520	1	0	40	20	
10	0	0	0	0	500	523	3	0	40	20	
11	0	0	0	0	499	522	3	1018	40	20	
12	0	0	0	0	493	519	2	1019	40	20	
13	0	0	0	0	489	515	0	1018	40	20	
14	0	0	0	0	490	513	2	1018	40	20	
15	0	0	0	0	494	515	1	1018	40	20	
0	0	0	0	0	502	513	2	1018	40	20	
1	0	0	0	0	514	511	3	1018	40	20	
2	0	0	0	0	524	509	2	497	40	20	
3	0	0	0	0	524	504	0	0	40	20	
4	0	0	0	0	525	500	2	0	40	20	
5	0	0	0	0	519	496	2	0	40	20	
6	0	0	0	0	516	497	1	0	40	20	
7	0	0	0	0	514	503	0	0	40	20	
8	0	0	0	0	515	508	2	0	40	20	
9	0	0	0	0	524	514	2	0	40	20	
10	0	0	0	0	521	519	0	0	40	20	
11	0	0	0	0	520	521	2	0	40	20	
12	0	0	0	0	511	520	3	1019	40	20	
13	0	0	0	0	497	518	1	1019	40	20	
14	0	0	0	0	498	515	2	1018	40	20	
15	0	0	0	0	502	516	2	1018	40	20	
0	0	0	0	0	505	517	2	1019	40	20	
1	0	0	0	0	512	513	1	1018	40	20	
2	0	0	0	0	518	513	3	1018	40	20	
3	0	0	0	0	523	508	0	1017	40	20	
4	0	0	0	0	519	503	3	0	40	20	
5	0	0	0	0	509	500	2	0	40	20	
6	0	0	0	0	502	497	1	0	40	20	
7	0	0	0	0	496	500	0	0	40	20	
8	0	0	0	0	494	507	3	0	40	20	
9	0	0	0	0	505	510	2	0	40	20	
10	0	0	0	0	518	516	0	0	40	20	
11	0	0	0	0	529	520	2	0	40	20	
12	0	0	0	0	541	519	3	1017	40	20	
13	0	0	0	0	539	520	0	1018	40	20	
14	0	0	0	0	535	516	3	1018	40	20	
15	0	0	0	0	528	514	2	1018	40	20	
0	0	0	0	0	514	515	3	1019	40	20	
1	0	0	0	0	505	514	1	1018	40	20	
2	0	0	0	0	502	511	2	1018	40	20	
3	0	0	0	0	499	508	0	1018	40	20	
4	0	0	0	0	499	506	3	577	40	20	
5	0	0	0	0	509	500	2	0	40	20	
6	0	0	0	0	515	499	1	0	40	20	
7	0	0	0	0	515	499	0	0	40	20	
8	0	0	0	0	518	504	3	0	40	20	
9	0	0	0	0	510	507	3	0	40	20	
10	0	0	0	0	507	513	1	0	40	20	
11	0	0	0	0	512	516	2	0	40	20	
12	0	0	0	0	522	520	1	0	40	20	
13	0	0	0	0	524	519	2	1018	40	20	
14	0	0	0	0	523	519	1	1018	40	20	
15	0	0	0	0	518	515	2	1018	40	20	
0	0	0	0	0	506	512	3	1019	40	20	
1	0	0	0	0	496	514	0	1018	40	20	
2	0	0	0	0	495	515	2	1018	40	20	
3	0	0	0	0	492	513	2	1018	40	20	
4	0	0	0	0	501	508	2	1019	40	20	
5	0	0	0	0	516	504	0	196	40	20	
6	0	0	0	0	534	500	1	0	40	20	
7	0	0	0	0	542	497	1	0	40	20	
8	0	0	0	0	538	496	2	0	40	20	
9	0	0	0	0	530	504	2	0	40	20	
10	0	0	0	0	520	508	3	0	40	20	
11	0	0	0	0	510	514	0	0	40	20	
12	0	0	0	0	502	515	2	0	40	20	
13	0	0	0	0	493	517	3	0	40	20	
14	0	0	0	0	488	518	2	1018	40	20	
15	0	0	0	0	488	513	1	1018	40	20	
0	0	0	0	0	487	511	1	1018	40	20	
1	0	0	0	0	501	513	2	1018	40	20	
2	0	0	0	0	507	514	0	1018	40	20	
3	0	0	0	0	515	515	2	1018	40	20	
4	0	0	0	0	515	512	2	1018	40	20	
5	0	0	0	0	521	508	0	1018	40	20	
6	0	0	0	0	526	504	2	139	40	20	
7	0	0	0	0	530	500	2	0	40	20	
8	0	0	0	0	531	496	2	0	40	20	
9	0	0	0	0	521	499	2	0	40	20	
10	0	0	0	0	510	507	2	0	40	20	
11	0	0	0	0	507	513	0	0	40	20	
12	0	0	0	0	505	519	3	0	40	20	
13	0	0	0	0	496	520	3	0	40	20	
14	0	0	0	0	499	520	1	565	40	20	
15	0	0	0	0	507	519	1	1018	40	20	
0	0	0	0	0	517	516	4	1019	40	20	
1	0	0	0	0	519	512	2	1018	40	20	
2	0	0	0	0	523	513	0	1018	40	20	
3	0	0	0	0	522	514	2	1018	40	20	
4	0	0	0	0	525	511	2	1019	40	20	
5	0	0	0	0	516	508	0	1018	40	20	
6	0	0	0	0	505	503	2	69	40	20	
7	0	0	0	0	501	499	2	0	40	20	
8	0	0	0	0	508	496	1	0	40	20	
9	0	0	0	0	508	493	1	0	40	20	
10	0	0	0	0	513	499	2	0	40	20	
11	0	0	0	0	519	505	1	0	40	20	
12	0	0	0	0	523	511	1	0	40	20	
13	0	0	0	0	529	513	3	0	40	20	
14	0	0	0	0	524	517	1	0	40	20	
15	0	0	0	0	524	518	1	1018	40	20	
0	0	0	0	0	511	515	4	1019	40	20	
1	0	0	0	0	493	512	3	1018	40	20	
2	0	0	0	0	492	512	0	1018	40	20	
3	0	0	0	0	497	515	2	1018	40	20	
4	0	0	0	0	502	514	3	1018	40	20	
5	0	0	0	0	502	511	1	1018	40	20	
6	0	0	0	0	517	508	2	1018	40	20	
7	0	0	0	0	526	504	2	160	40	20	
8	0	0	0	0	530	500	3	0	40	20	
9	0	0	0	0	531	497	2	0	40	20	
10	0	0	0	0	522	499	2	0	40	20	
11	0	0	0	0	504	505	0	0	40	20	
12	0	0	0	0	490	511	3	0	40	20	
13	0	0	0	0	487	515	2	0	40	20	
14	0	0	0	0	492	518	1	0	40	20	
15	0	0	0	0	501	521	3	358	40	20	
0	0	0	0	0	513	519	4	1019	40	20	
1	0	0	0	0	523	518	1	1018	40	20	
2	0	0	0	0	550	514	2	1018	40	20	
3	0	0	0	0	544	515	2	1018	40	20	
4	0	0	0	0	528	517	3	1019	40	20	
5	0	0	0	0	521	515	1	1018	40	20	
6	0	0	0	0	522	510	3	1018	40	20	
7	0	0	0	0	523	506	0	1018	40	20	
8	0	0	0	0	523	501	1	302	40	20	
9	0	0	0	0	522	498	2	0	40	20	
10	0	0	0	0	516	496	1	0	40	20	
11	0	0	0	0	508	499	0	0	40	20	
12	0	0	0	0	499	504	3	0	40	20	
13	0	0	0	0	493	510	1	0	40	20	
14	0	0	0	0	496	516	1	0	40	20	
15	0	0	0	0	502	519	2	0	40	20	
0	0	0	0	0	498	521	3	1018	40	20	
1	0	0	0	0	501	520	1	1018	40	20	
2	0	0	0	0	504	516	3	1018	40	20	
3	0	0	0	0	504	514	3	1018	40	20	
4	0	0	0	0	499	512	3	1018	40	20	
5	0	0	0	0	495	512	1	1018	40	20	
6	0	0	0	0	492	511	2	1018	40	20	
7	0	0	0	0	492	510	1	1018	40	20	
8	0	0	0	0	500	505	3	1018	40	20	
9	0	0	0	0	510	502	2	1018	40	20	
10	0	0	0	0	524	498	2	0	40	20	
11	0	0	0	0	534	495	0	0	40	20	
12	0	0	0	0	532	499	1	0	40	20	
13	0	0	0	0	531	505	2	0	40	20	
14	0	0	0	0	528	511	1	0	40	20	
15	0	0	0	0	523	515	1	0	40	20	
0	0	0	0	0	512	517	3	0	40	20	
1	0	0	0	0	514	517	3	1018	40	20	
2	0	0	0	0	518	518	1	1018	40	20	
3	0	0	0	0	523	513	3	1018	40	20	
4	0	0	0	0	520	512	3	1019	40	20	
5	0	0	0	0	521	512	0	1018	40	20	
6	0	0	0	0	526	513	0	1018	40	20	
7	0	0	0	0	524	511	2	1018	40	20	
8	0	0	0	0	525	506	2	1019	40	20	
9	0	0	0	0	523	502	0	1018	40	20	
10	0	0	0	0	518	497	1	0	40	20	
11	0	0	0	0	510	496	2	0	40	20	
12	0	0	0	0	500	497	2	0	40	20	
13	0	0	0	0	488	503	2	0	40	20	
14	0	0	0	0	475	508	3	0	40	20	
15	0	0	0	0	471	514	0	0	40	20	
0	0	0	0	0	484	514	3	0	40	20	
1	0	0	0	0	511	517	3	0	40	20	
2	0	0	0	0	519	519	3	1018	40	20	
3	0	0	0	0	524	516	2	1018	40	20	
4	0	0	0	0	533	514	2	1019	40	20	
5	0	0	0	0	518	512	3	1018	40	20	
6	0	0	0	0	509	516	3	1018	40	20	
7	0	0	0	0	509	514	0	1018	40	20	
8	0	0	0	0	512	510	1	1018	40	20	
9	0	0	0	0	522	507	1	666	40	20	
10	0	0	0	0	527	502	1	0	40	20	
11	0	0	0	0	531	500	0	0	40	20	
12	0	0	0	0	537	496	3	0	40	20	
13	0	0	0	0	528	496	2	0	40	20	
14	0	0	0	0	520	499	0	0	40	20	
15	0	0	0	0	513	506	0	0	40	20	
0	0	0	0	0	512	512	3	0	40	20	
1	0	0	0	0	519	516	2	0	40	20	
2	0	0	0	0	515	518	2	1018	40	20	
3	0	0	0	0	515	518	2	1018	40	20	
4	0	0	0	0	505	515	3	1018	40	20	
5	0	0	0	0	495	513	0	1018	40	20	
6	0	0	0	0	494	515	3	1018	40	20	
7	0	0	0	0	492	514	2	1018	40	20	
8	0	0	0	0	499	514	3	1019	40	20	
9	0	0	0	0	510	509	2	1018	40	20	
10	0	0	0	0	522	506	1	1018	40	20	
11	0	0	0	0	525	502	0	355	40	20	
12	0	0	0	0	522	497	1	0	40	20	
13	0	0	0	0	524	496	2	0	40	20	
14	0	0	0	0	521	503	0	0	40	20	
15	0	0	0	0	514	511	2	0	40	20	
0	0	0	0	0	499	515	2	0	40	20	
1	0	0	0	0	496	520	0	0	40	20	
2	0	0	0	0	499	524	3	0	40	20	
3	0	0	0	0	498	520	3	1018	40	20	
4	0	0	0	0	503	517	3	1018	40	20	
5	0	0	0	0	506	515	3	1018	40	19	
6	0	0	0	0	503	514	3	1018	40	20	
7	0	0	0	0	504	515	0	1018	40	20	
8	0	0	0	0	505	515	3	1018	40	19	
9	0	0	0	0	502	513	2	1018	40	20	
10	0	0	0	0	507	510	1	1018	40	19	
11	0	0	0	0	527	505	0	1018	40	19	
12	0	0	0	0	550	499	3	263	40	20	
13	0	0	0	0	549	495	2	0	40	19	
14	0	0	0	0	547	496	0	0	40	20	
15	0	0	0	0	538	503	2	0	40	19	
0	0	0	0	0	530	510	1	0	40	20	
1	0	0	0	0	519	517	1	0	40	19	
2	0	0	0	0	503	521	3	0	40	19	
3	0	0	0	0	493	521	3	0	40	20	
4	0	0	0	0	486	520	2	1019	40	19	
5	0	0	0	0	480	517	1	1018	40	19	
6	0	0	0	0	478	514	3	1018	40	20	
7	0	0	0	0	472	514	2	1018	40	19	
8	0	0	0	0	478	514	3	1018	40	19	
9	0	0	0	0	506	512	0	1018	40	19	
10	0	0	0	0	543	508	3	1018	40	20	
11	0	0	0	0	557	506	2	0	40	19	
12	0	0	0	0	548	499	1	0	40	20	
13	0	0	0	0	551	496	0	0	40	20	
14	0	0	0	0	534	493	0	0	40	19	
15	0	0	0	0	509	495	2	0	40	20	
0	0	0	0	0	495	501	1	0	40	20	
1	0	0	0	0	488	507	1	0	40	19	
2	0	0	0	0	483	511	1	0	40	20	
3	0	0	0	0	488	515	2	0	40	19	
4	0	0	0	0	511	516	2	985	40	20	
5	0	0	0	0	527	518	2	1018	40	20	
6	0	0	0	0	536	517	1	1018	40	20	
7	0	0	0	0	537	515	2	1018	40	20	
8	0	0	0	0	524	515	1	1018	40	20	
9	0	0	0	0	516	516	1	1018	40	20	
10	0	0	0	0	512	513	1	1018	40	20	
11	0	0	0	0	511	511	2	1018	40	20	
12	0	0	0	0	504	504	2	1018	40	20	
13	0	0	0	0	510	500	0	265	40	19	
14	0	0	0	0	515	496	0	0	40	20	
15	0	0	0	0	526	494	1	0	40	20	
0	0	0	0	0	524	499	1	0	40	20	
1	0	0	0	0	521	505	0	0	40	20	
2	0	0	0	0	511	510	3	0	40	20	
3	0	0	0	0	508	515	2	0	40	20	
4	0	0	0	0	503	519	3	0	40	20	
5	0	0	0	0	494	520	3	1018	40	20	
6	0	0	0	0	489	519	3	1018	40	20	
7	0	0	0	0	489	517	1	1018	40	20	
8	0	0	0	0	491	513	3	1019	40	20	
9	0	0	0	0	493	513	2	1018	40	20	
10	0	0	0	0	499	515	1	1018	40	20	
11	0	0	0	0	515	512	1	1018	40	20	
12	0	0	0	0	525	508	3	1019	40	20	
13	0	0	0	0	531	502	1	1018	40	19	
14	0	0	0	0	535	497	0	0	40	19	
15	0	0	0	0	538	495	2	0	40	19	
0	0	0	0	0	533	496	2	0	40	20	
1	0	0	0	0	529	500	0	0	40	19	
2	0	0	0	0	522	508	3	0	40	19	
3	0	0	0	0	512	516	2	0	40	19	
4	0	0	0	0	498	521	3	0	40	19	
5	0	0	0	0	487	522	1	0	40	19	
6	0	0	0	0	488	522	3	1018	40	19	
7	0	0	0	0	500	520	2	1018	40	19	
8	0	0	0	0	509	517	3	1019	40	19	
9	0	0	0	0	504	515	1	1018	40	19	
10	0	0	0	0	506	517	2	1018	40	19	
11	0	0	0	0	518	516	2	1018	40	19	
12	0	0	0	0	527	510	2	1018	40	19	
13	0	0	0	0	526	506	0	1018	40	19	
14	0	0	0	0	526	501	2	0	40	19	
15	0	0	0	0	521	498	2	0	40	19	
0	0	0	0	0	521	495	2	0	40	19	
1	0	0	0	0	512	499	0	0	40	19	
2	0	0	0	0	507	504	1	0	40	19	
3	0	0	0	0	505	511	2	0	40	19	
4	0	0	0	0	500	516	3	0	40	19	
5	0	0	0	0	501	521	0	0	40	19	
6	0	0	0	0	505	520	3	379	40	19	
7	0	0	0	0	504	521	3	1018	40	19	
8	0	0	0	0	514	518	3	1019	40	19	
9	0	0	0	0	515	513	0	1018	40	19	
10	0	0	0	0	515	514	3	1018	40	19	
11	0	0	0	0	514	514	3	1018	40	19	
12	0	0	0	0	512	513	1	1019	40	19	
13	0	0	0	0	507	508	0	1018	40	19	
14	0	0	0	0	520	507	2	1018	40	19	
15	0	0	0	0	535	500	2	0	40	19	
0	0	0	0	0	547	497	2	0	40	19	
1	0	0	0	0	558	495	0	0	40	19	
2	0	0	0	0	560	500	2	0	40	19	
3	0	0	0	0	545	508	2	0	40	19	
4	0	0	0	0	524	517	3	0	40	19	
5	0	0	0	0	490	517	1	0	40	19	
6	0	0	0	0	469	519	3	0	40	19	
7	0	0	0	0	463	520	3	1018	40	19	
8	0	0	0	0	461	519	4	1018	40	19	
9	0	0	0	0	466	516	1	1018	40	19	
10	0	0	0	0	492	515	3	1018	40	19	
11	0	0	0	0	506	518	2	1018	40	19	
12	0	0	0	0	507	518	3	1018	40	19	
13	0	0	0	0	504	515	1	1018	40	19	
14	0	0	0	0	519	511	2	1018	40	19	
15	0	0	0	0	536	507	1	1018	40	19	
0	0	0	0	0	545	501	3	1017	40	19	
1	0	0	0	0	545	496	2	0	40	19	
2	0	0	0	0	529	497	2	0	40	19	
3	0	0	0	0	508	503	0	0	40	19	
4	0	0	0	0	502	508	1	0	40	19	
5	0	0	0	0	496	514	3	0	40	19	
6	0	0	0	0	497	518	0	0	40	19	
7	0	0	0	0	500	520	2	0	40	19	
8	0	0	0	0	515	520	3	1019	40	18	
9	0	0	0	0	518	516	1	1018	40	18	
10	0	0	0	0	513	513	3	1018	40	18	
11	0	0	0	0	518	513	3	1018	40	18	
12	0	0	0	0	521	515	3	1019	40	18	
13	0	0	0	0	524	512	0	1019	40	18	
14	0	0	0	0	526	510	2	1018	40	18	
15	0	0	0	0	526	506	2	1018	40	18	
0	0	0	0	0	530	500	2	352	40	18	
1	0	0	0	0	516	494	2	0	40	18	
2	0	0	0	0	510	492	2	0	40	18	
3	0	0	0	0	506	497	0	0	40	18	
4	0	0	0	0	502	504	1	0	40	18	
5	0	0	0	0	499	509	2	0	40	18	
6	0	0	0	0	496	516	0	0	40	18	
7	0	0	0	0	482	520	3	0	40	18	
8	0	0	0	0	491	522	3	1017	40	18	
9	0	0	0	0	493	520	1	1018	40	18	
10	0	0	0	0	496	517	3	1018	40	18	
11	0	0	0	0	511	513	3	1018	40	18	
12	0	0	0	0	527	513	3	1018	40	18	
13	0	0	0	0	536	514	1	1019	40	18	
14	0	0	0	0	539	513	2	1018	40	18	
15	0	0	0	0	541	513	0	1018	40	18	
0	0	0	0	0	539	507	3	1019	40	18	
1	0	0	0	0	540	502	2	6	40	18	
2	0	0	0	0	524	496	1	0	40	18	
3	0	0	0	0	518	494	0	0	40	18	
4	0	0	0	0	515	498	3	0	40	18	
5	0	0	0	0	503	506	2	0	40	18	
6	0	0	0	0	497	512	1	0	40	18	
7	0	0	0	0	489	518	0	0	40	18	
8	0	0	0	0	496	521	3	0	40	18	
9	0	0	0	0	496	520	3	1018	40	18	
10	0	0	0	0	507	518	1	1018	40	18	
11	0	0	0	0	520	514	3	1018	40	18	
12	0	0	0	0	514	515	3	1019	40	18	
13	0	0	0	0	505	516	0	1018	40	18	
14	0	0	0	0	500	517	3	1018	40	18	
15	0	0	0	0	515	515	2	1018	40	18	
0	0	0	0	0	511	511	1	1019	40	18	
1	0	0	0	0	509	506	0	802	40	18	
2	0	0	0	0	513	502	1	0	40	18	
3	0	0	0	0	515	500	1	0	40	18	
4	0	0	0	0	535	499	2	0	40	18	
5	0	0	0	0	547	504	2	0	40	18	
6	0	0	0	0	547	511	3	0	40	18	
7	0	0	0	0	541	519	0	0	40	18	
8	0	0	0	0	528	521	3	0	40	18	
9	0	0	0	0	515	520	3	0	40	18	
10	0	0	0	0	502	521	2	1018	40	18	
11	0	0	0	0	488	519	2	1018	40	18	
12	0	0	0	0	477	515	3	1019	40	18	
13	0	0	0	0	469	514	3	1018	40	18	
14	0	0	0	0	446	515	0	1018	40	18	
15	0	0	0	0	437	514	2	1018	40	18	
0	0	0	0	0	478	511	3	1019	40	18	
1	0	0	0	0	512	508	0	1018	40	18	
2	0	0	0	0	532	501	2	494	40	18	
3	0	0	0	0	550	496	2	0	40	18	
4	0	0	0	0	551	493	2	0	40	18	
5	0	0	0	0	544	495	0	0	40	18	
6	0	0	0	0	531	500	2	0	40	18	
7	0	0	0	0	525	508	1	0	40	18	
8	0	0	0	0	522	515	3	0	40	18	
9	0	0	0	0	536	519	3	0	40	18	
10	0	0	0	0	542	521	3	0	40	18	
11	0	0	0	0	537	520	1	1018	40	18	
12	0	0	0	0	534	518	4	1019	40	18	
13	0	0	0	0	525	515	3	1018	40	18	
14	0	0	0	0	514	516	1	1018	40	18	
15	0	0	0	0	509	517	0	1018	40	18	
0	0	0	0	0	508	514	2	1019	40	18	
1	0	0	0	0	499	511	2	1018	40	18	
2	0	0	0	0	484	507	0	1018	40	18	
3	0	0	0	0	460	503	2	0	40	18	
4	0	0	0	0	457	499	2	0	40	18	
5	0	0	0	0	470	495	0	0	40	18	
6	0	0	0	0	487	499	0	0	40	18	
7	0	0	0	0	507	507	2	0	40	18	
8	0	0	0	0	519	511	3	0	40	18	
9	0	0	0	0	510	513	1	0	40	18	
10	0	0	0	0	509	517	2	0	40	18	
11	0	0	0	0	513	518	2	418	40	18	
12	0	0	0	0	532	517	3	1018	40	18	
13	0	0	0	0	541	513	3	1018	40	18	
14	0	0	0	0	539	512	2	1018	40	18	
15	0	0	0	0	531	514	0	1018	40	18	
0	0	0	0	0	527	514	2	1018	40	18	
1	0	0	0	0	526	512	2	1018	40	18	
2	0	0	0	0	524	509	2	1018	40	18	
3	0	0	0	0	524	502	0	0	40	18	
4	0	0	0	0	523	498	0	0	40	18	
5	0	0	0	0	531	496	2	0	40	18	
6	0	0	0	0	534	494	1	0	40	18	
7	0	0	0	0	532	500	0	0	40	18	
8	0	0	0	0	509	508	3	0	40	18	
9	0	0	0	0	495	512	2	0	40	18	
10	0	0	0	0	490	516	1	0	40	18	
11	0	0	0	0	488	518	3	0	40	18	
12	0	0	0	0	483	519	4	1019	40	18	
13	0	0	0	0	477	517	1	1019	40	18	
14	0	0	0	0	506	513	2	1018	40	18	
15	0	0	0	0	527	513	3	1018	40	18	
0	0	0	0	0	528	515	3	1019	40	19	
1	0	0	0	0	524	513	1	1018	40	18	
2	0	0	0	0	515	510	3	1019	40	18	
3	0	0	0	0	523	507	0	1018	40	18	
4	0	0	0	0	527	501	1	1017	40	18	
5	0	0	0	0	522	496	2	0	40	19	
6	0	0	0	0	515	494	1	0	40	18	
7	0	0	0	0	485	497	0	0	40	18	
8	0	0	0	0	473	503	2	0	40	19	
9	0	0	0	0	499	507	2	0	40	19	
10	0	0	0	0	517	512	0	0	40	19	
11	0	0	0	0	528	517	3	0	40	19	
12	0	0	0	0	523	519	2	1016	40	19	
13	0	0	0	0	513	519	1	1018	40	19	
14	0	0	0	0	514	518	3	1018	40	19	
15	0	0	0	0	528	516	3	1018	40	19	
0	0	0	0	0	544	516	2	1019	40	19	
1	0	0	0	0	577	515	0	1019	40	19	
2	0	0	0	0	569	514	2	1018	40	19	
3	0	0	0	0	535	511	2	1018	40	19	
4	0	0	0	0	501	507	1	1019	40	19	
5	0	0	0	0	476	502	2	1018	40	19	
6	0	0	0	0	448	497	2	0	40	19	
7	0	0	0	0	453	493	0	0	40	19	
8	0	0	0	0	452	499	2	0	40	19	
9	0	0	0	0	450	506	1	0	40	19	
10	0	0	0	0	435	512	3	0	40	19	
11	0	0	0	0	450	515	2	0	40	19	
12	0	0	0	0	498	519	3	0	40	19	
13	0	0	0	0	533	517	2	1018	40	19	
14	0	0	0	0	547	518	3	1018	40	19	
15	0	0	0	0	553	516	1	1018	40	19	
0	0	0	0	0	558	514	2	1019	40	19	
1	0	0	0	0	551	516	3	1018	40	19	
2	0	0	0	0	545	516	2	1018	40	19	
3	0	0	0	0	555	514	0	1018	40	19	
4	0	0	0	0	560	508	1	1019	40	19	
5	0	0	0	0	564	504	2	1018	40	19	
6	0	0	0	0	556	499	1	0	40	19	
7	0	0	0	0	539	497	0	0	40	19	
8	0	0	0	0	523	496	3	0	40	19	
9	0	0	0	0	495	501	2	0	40	19	
10	0	0	0	0	461	508	1	0	40	19	
11	0	0	0	0	455	514	2	0	40	19	
12	0	0	0	0	461	517	1	0	40	19	
13	0	0	0	0	471	521	1	0	40	19	
14	0	0	0	0	470	522	2	1018	40	19	
15	0	0	0	0	477	519	3	1018	40	19	
0	0	0	0	0	497	515	3	1018	40	19	
1	0	0	0	0	521	514	1	1018	40	19	
2	0	0	0	0	531	516	3	1018	40	19	
3	0	0	0	0	531	513	2	1018	40	19	
4	0	0	0	0	549	510	3	1019	40	19	
5	0	0	0	0	544	506	0	1018	40	19	
6	0	0	0	0	536	502	2	0	40	19	
7	0	0	0	0	531	500	1	0	40	19	
8	0	0	0	0	532	495	2	0	40	19	
9	0	0	0	0	530	495	0	0	40	19	
10	0	0	0	0	526	502	2	0	40	19	
11	0	0	0	0	528	506	1	0	40	19	
12	0	0	0	0	533	515	3	0	40	19	
13	0	0	0	0	528	519	3	0	40	19	
14	0	0	0	0	508	522	3	0	40	19	
15	0	0	0	0	489	521	1	1018	40	19	
0	0	0	0	0	465	520	4	1019	40	19	
1	0	0	0	0	483	517	3	1018	40	19	
2	0	0	0	0	491	518	1	1018	40	19	
3	0	0	0	0	494	518	0	1018	40	19	
4	0	0	0	0	489	514	3	1019	40	19	
5	0	0	0	0	483	510	3	1018	40	19	
6	0	0	0	0	485	505	0	656	40	19	
7	0	0	0	0	527	499	2	0	40	19	
8	0	0	0	0	556	496	1	0	40	19	
9	0	0	0	0	560	493	0	0	40	19	
10	0	0	0	0	546	497	0	0	40	19	
11	0	0	0	0	533	506	2	0	40	19	
12	0	0	0	0	531	512	2	0	40	19	
13	0	0	0	0	531	514	1	0	40	19	
14	0	0	0	0	534	518	1	0	40	19	
15	0	0	0	0	524	522	3	643	40	19	
0	0	0	0	0	513	521	3	1018	40	19	
1	0	0	0	0	504	519	1	1018	40	19	
2	0	0	0	0	478	515	3	1018	40	19	
3	0	0	0	0	467	518	2	1018	40	19	
4	0	0	0	0	474	515	1	1019	40	19	
5	0	0	0	0	468	510	0	1018	40	19	
6	0	0	0	0	472	506	2	1018	40	19	
7	0	0	0	0	491	501	2	179	40	19	
8	0	0	0	0	499	498	1	0	40	19	
9	0	0	0	0	508	494	0	0	40	19	
10	0	0	0	0	527	495	2	0	40	19	
11	0	0	0	0	539	502	1	0	40	19	
12	0	0	0	0	540	508	1	0	40	19	
13	0	0	0	0	550	513	2	0	40	19	
14	0	0	0	0	554	519	3	0	40	19	
15	0	0	0	0	545	522	1	0	40	19	
0	0	0	0	0	540	524	4	1019	40	19	
1	0	0	0	0	539	520	3	1018	40	19	
2	0	0	0	0	537	514	1	1018	40	19	
3	0	0	0	0	560	515	0	1018	40	19	
4	0	0	0	0	548	516	3	1019	40	19	
5	0	0	0	0	511	514	2	1018	40	19	
6	0	0	0	0	474	510	1	1018	40	19	
7	0	0	0	0	419	508	0	1018	40	19	
8	0	0	0	0	403	503	3	184	40	19	
9	0	0	0	0	443	498	1	0	40	19	
10	0	0	0	0	499	494	0	0	40	19	
11	0	0	0	0	509	495	2	0	40	19	
12	0	0	0	0	493	501	2	0	40	19	
13	0	0	0	0	514	509	1	0	40	19	
14	0	0	0	0	564	515	3	0	40	19	
15	0	0	0	0	575	519	3	0	40	19	
0	0	0	0	0	576	521	3	0	40	19	
1	0	0	0	0	551	519	1	1018	40	19	
2	0	0	0	0	528	519	3	1018	40	19	
3	0	0	0	0	520	514	3	1018	40	19	
4	0	0	0	0	517	513	3	1019	40	19	
5	0	0	0	0	485	512	1	1018	40	19	
6	0	0	0	0	434	510	2	1018	40	19	
7	0	0	0	0	416	508	1	1018	40	19	
8	0	0	0	0	430	505	3	1018	40	19	
9	0	0	0	0	477	501	0	307	40	19	
10	0	0	0	0	502	497	2	0	40	19	
11	0	0	0	0	524	495	1	0	40	19	
12	0	0	0	0	537	499	2	0	40	19	
13	0	0	0	0	539	504	1	0	40	19	
14	0	0	0	0	559	511	2	0	40	19	
15	0	0	0	0	572	519	2	0	40	19	
0	0	0	0	0	568	520	3	0	40	19	
1	0	0	0	0	565	519	1	596	40	19	
2	0	0	0	0	568	520	3	1018	40	19	
3	0	0	0	0	556	517	3	1018	40	19	
4	0	0	0	0	544	516	3	1018	40	19	
5	0	0	0	0	514	517	0	1018	40	19	
6	0	0	0	0	480	516	2	1018	40	19	
7	0	0	0	0	461	514	2	1018	40	19	
8	0	0	0	0	478	510	2	1019	40	19	
9	0	0	0	0	476	504	0	11	40	19	
10	0	0	0	0	455	499	1	0	40	19	
11	0	0	0	0	467	495	2	0	40	19	
12	0	0	0	0	516	494	1	0	40	19	
13	0	0	0	0	556	498	0	0	40	19	
14	0	0	0	0	588	505	3	0	40	19	
15	0	0	0	0	578	514	2	0	40	19	
0	0	0	0	0	545	518	3	0	40	19	
1	0	0	0	0	526	519	1	0	40	19	
2	0	0	0	0	517	519	3	1018	40	19	
3	0	0	0	0	512	517	3	1018	40	19	
4	0	0	0	0	494	514	3	1019	40	19	
5	0	0	0	0	448	515	0	1018	40	19	
6	0	0	0	0	412	518	2	1018	40	19	
7	0	0	0	0	418	517	2	1018	40	19	
8	0	0	0	0	468	512	2	1019	40	19	
9	0	0	0	0	489	507	0	1018	40	19	
10	0	0	0	0	490	503	2	0	40	19	
11	0	0	0	0	519	499	0	0	40	19	
12	0	0	0	0	545	495	1	0	40	19	
13	0	0	0	0	550	497	2	0	40	19	
14	0	0	0	0	541	504	1	0	40	19	
15	0	0	0	0	518	509	0	0	40	19	
0	0	0	0	0	514	516	3	0	40	19	
1	0	0	0	0	505	519	3	0	40	19	
2	0	0	0	0	511	519	2	0	40	19	
3	0	0	0	0	531	520	0	1018	40	19	
4	0	0	0	0	537	515	1	1019	40	19	
5	0	0	0	0	543	512	3	1018	40	19	
6	0	0	0	0	544	515	1	1018	40	19	
7	0	0	0	0	556	515	1	1018	40	19	
8	0	0	0	0	555	512	1	1019	40	19	
9	0	0	0	0	540	507	1	1018	40	19	
10	0	0	0	0	518	504	0	1018	40	19	
11	0	0	0	0	497	498	2	146	40	19	
12	0	0	0	0	481	495	1	0	40	19	
13	0	0	0	0	483	493	0	0	40	19	
14	0	0	0	0	482	499	2	0	40	19	
15	0	0	0	0	471	506	2	0	40	19	
0	0	0	0	0	467	513	2	0	40	19	
1	0	0	0	0	488	517	1	0	40	19	
2	0	0	0	0	504	521	2	0	40	19	
3	0	0	0	0	517	521	3	1018	40	19	
4	0	0	0	0	522	519	4	1018	40	19	
5	0	0	0	0	529	516	2	1018	40	19	
6	0	0	0	0	535	514	3	1018	40	19	
7	0	0	0	0	527	515	0	1018	40	19	
8	0	0	0	0	530	515	3	1019	40	19	
9	0	0	0	0	534	513	2	1018	40	19	
10	0	0	0	0	532	508	1	1018	40	19	
11	0	0	0	0	526	505	0	1018	40	19	
12	0	0	0	0	523	501	3	1018	40	19	
13	0	0	0	0	532	495	2	0	40	19	
14	0	0	0	0	544	492	0	0	40	19	
15	0	0	0	0	536	497	2	0	40	19	
0	0	0	0	0	518	504	3	0	40	19	
1	0	0	0	0	482	511	1	0	40	19	
2	0	0	0	0	465	517	1	0	40	19	
3	0	0	0	0	468	524	3	0	40	19	
4	0	0	0	0	490	524	3	1018	40	19	
5	0	0	0	0	498	521	2	1019	40	19	
6	0	0	0	0	496	519	3	1018	40	19	
7	0	0	0	0	518	518	3	1018	40	19	
8	0	0	0	0	526	519	1	1019	40	19	
9	0	0	0	0	537	517	0	1018	40	19	
10	0	0	0	0	534	514	2	1018	40	19	
11	0	0	0	0	526	510	1	1018	40	19	
12	0	0	0	0	519	505	2	1019	40	19	
13	0	0	0	0	506	499	0	195	40	19	
14	0	0	0	0	492	495	2	0	40	19	
15	0	0	0	0	478	496	2	0	40	19	
0	0	0	0	0	491	499	1	0	40	19	
1	0	0	0	0	507	506	0	0	40	19	
2	0	0	0	0	520	515	3	0	40	19	
3	0	0	0	0	532	520	3	0	40	19	
4	0	0	0	0	536	521	3	0	40	19	
5	0	0	0	0	528	520	1	1018	40	19	
6	0	0	0	0	516	519	2	1018	40	19	
7	0	0	0	0	510	516	2	1018	40	19	
8	0	0	0	0	480	517	2	1019	40	19	
9	0	0	0	0	474	517	1	1019	40	19	
10	0	0	0	0	488	516	1	1018	40	19	
11	0	0	0	0	486	513	2	1018	40	19	
12	0	0	0	0	528	509	2	1019	40	19	
13	0	0	0	0	561	501	0	44	40	19	
14	0	0	0	0	583	497	0	0	40	19	
15	0	0	0	0	574	495	1	0	40	19	
0	0	0	0	0	558	499	2	0	40	19	
1	0	0	0	0	526	504	1	0	40	19	
2	0	0	0	0	503	511	1	0	40	19	
3	0	0	0	0	524	515	2	0	40	19	
4	0	0	0	0	513	518	2	0	40	19	
5	0	0	0	0	466	518	2	0	40	19	
6	0	0	0	0	444	518	1	1018	40	19	
7	0	0	0	0	460	515	3	1018	40	19	
8	0	0	0	0	489	512	3	1019	40	19	
9	0	0	0	0	527	513	1	1018	40	19	
10	0	0	0	0	506	513	1	1018	40	19	
11	0	0	0	0	475	511	2	1018	40	19	
12	0	0	0	0	474	505	1	1018	40	19	
13	0	0	0	0	483	500	1	1018	40	19	
14	0	0	0	0	466	496	0	0	40	19	
15	0	0	0	0	457	492	2	0	40	19	
0	0	0	0	0	494	492	1	0	40	19	
1	0	0	0	0	524	497	2	0	40	19	
2	0	0	0	0	555	504	0	0	40	19	
3	0	0	0	0	567	512	1	0	40	19	
4	0	0	0	0	568	517	3	0	40	19	
5	0	0	0	0	564	520	3	0	40	19	
6	0	0	0	0	564	521	1	1018	40	19	
7	0	0	0	0	545	521	1	1018	40	19	
8	0	0	0	0	525	517	4	1019	40	19	
9	0	0	0	0	500	516	2	1018	40	19	
10	0	0	0	0	486	516	0	1018	40	19	
11	0	0	0	0	487	514	2	1018	40	19	
12	0	0	0	0	489	509	3	1019	40	19	
13	0	0	0	0	482	505	1	1018	40	19	
14	0	0	0	0	487	501	0	1018	40	19	
15	0	0	0	0	517	497	2	0	40	19	
0	0	0	0	0	542	492	2	0	40	19	
1	0	0	0	0	565	492	1	0	40	19	
2	0	0	0	0	556	500	0	0	40	19	
3	0	0	0	0	544	506	2	0	40	19	
4	0	0	0	0	531	513	3	0	40	19	
5	0	0	0	0	515	517	1	0	40	19	
6	0	0	0	0	496	519	3	0	40	19	
7	0	0	0	0	480	521	2	1018	40	19	
8	0	0	0	0	487	517	2	1018	40	19	
9	0	0	0	0	487	514	1	1018	40	19	
10	0	0	0	0	492	516	1	1018	40	19	
11	0	0	0	0	497	516	2	1018	40	19	
12	0	0	0	0	505	511	3	1018	40	19	
13	0	0	0	0	535	510	1	1018	40	19	
14	0	0	0	0	540	506	0	1018	40	19	
15	0	0	0	0	526	499	2	231	40	19	
0	0	0	0	0	516	495	2	0	40	19	
1	0	0	0	0	521	493	1	0	40	19	
2	0	0	0	0	513	498	0	0	40	19	
3	0	0	0	0	505	506	2	0	40	19	
4	0	0	0	0	491	513	2	0	40	19	
5	0	0	0	0	484	519	2	0	40	19	
6	0	0	0	0	510	522	0	0	40	19	
7	0	0	0	0	527	523	3	0	40	19	
8	0	0	0	0	536	522	4	1019	40	19	
9	0	0	0	0	528	519	3	1018	40	19	
10	0	0	0	0	512	515	1	1018	40	19	
11	0	0	0	0	504	517	1	1018	40	19	
12	0	0	0	0	500	515	2	1019	40	19	
13	0	0	0	0	507	513	3	1018	40	19	
14	0	0	0	0	506	511	0	1018	40	19	
15	0	0	0	0	491	507	0	1018	40	19	
0	0	0	0	0	498	500	0	0	40	19	
1	0	0	0	0	500	497	2	0	40	19	
2	0	0	0	0	519	496	1	0	40	19	
3	0	0	0	0	534	502	0	0	40	19	
4	0	0	0	0	531	508	3	0	40	19	
5	0	0	0	0	526	513	2	0	40	19	
6	0	0	0	0	522	518	1	0	40	19	
7	0	0	0	0	521	521	2	0	40	19	
8	0	0	0	0	530	521	4	1019	40	19	
9	0	0	0	0	533	518	2	1018	40	19	
10	0	0	0	0	511	515	1	1018	40	19	
11	0	0	0	0	482	514	2	1018	40	19	
12	0	0	0	0	494	513	3	1018	40	19	
13	0	0	0	0	503	511	1	1018	40	19	
14	0	0	0	0	499	509	1	1018	40	19	
15	0	0	0	0	500	506	1	1018	40	19	
0	0	0	0	0	543	500	2	1018	40	19	
1	0	0	0	0	552	496	1	1	40	19	
2	0	0	0	0	548	492	0	0	40	19	
3	0	0	0	0	527	494	2	0	40	19	
4	0	0	0	0	516	502	2	0	40	19	
5	0	0	0	0	512	507	1	0	40	19	
6	0	0	0	0	496	513	0	0	40	19	
7	0	0	0	0	466	518	3	0	40	19	
8	0	0	0	0	461	521	4	0	40	19	
9	0	0	0	0	473	520	3	1018	40	19	
10	0	0	0	0	505	518	1	1018	40	19	
11	0	0	0	0	539	513	1	1018	40	19	
12	0	0	0	0	549	512	2	1018	40	19	
13	0	0	0	0	552	513	3	1018	40	19	
14	0	0	0	0	543	513	1	1018	40	19	
15	0	0	0	0	527	512	0	1018	40	19	
0	0	0	0	0	535	505	1	1018	40	19	
1	0	0	0	0	502	499	2	0	40	19	
2	0	0	0	0	477	496	0	0	40	19	
3	0	0	0	0	481	494	0	0	40	19	
4	0	0	0	0	457	496	1	0	40	19	
5	0	0	0	0	447	503	2	0	40	19	
6	0	0	0	0	476	509	0	0	40	19	
7	0	0	0	0	487	516	2	0	40	19	
8	0	0	0	0	513	522	3	0	40	19	
9	0	0	0	0	540	521	2	0	40	19	
10	0	0	0	0	537	519	1	1018	40	19	
11	0	0	0	0	536	516	3	1018	40	19	
12	0	0	0	0	529	513	3	1019	40	19	
13	0	0	0	0	521	515	2	1018	40	19	
14	0	0	0	0	516	515	1	1018	40	19	
15	0	0	0	0	496	514	1	1018	40	19	
0	0	0	0	0	510	510	2	1019	40	19	
1	0	0	0	0	536	504	3	1018	40	19	
2	0	0	0	0	537	499	0	0	40	19	
3	0	0	0	0	532	497	0	0	40	19	
4	0	0	0	0	534	496	1	0	40	19	
5	0	0	0	0	537	502	2	0	40	19	
6	0	0	0	0	545	506	1	0	40	19	
7	0	0	0	0	534	513	0	0	40	19	
8	0	0	0	0	507	519	4	0	40	19	
9	0	0	0	0	489	519	3	0	40	19	
10	0	0	0	0	523	520	2	1018	40	19	
11	0	0	0	0	585	518	3	1018	40	19	
12	0	0	0	0	565	514	4	1019	40	19	
13	0	0	0	0	496	512	2	1018	40	19	
14	0	0	0	0	467	513	1	1018	40	19	
15	0	0	0	0	478	513	2	1018	40	19	
0	0	0	0	0	480	511	2	1019	40	19	
1	0	0	0	0	462	507	1	1018	40	19	
2	0	0	0	0	437	501	2	1018	40	19	
3	0	0	0	0	487	498	2	1017	40	19	
4	0	0	0	0	524	496	2	0	40	19	
5	0	0	0	0	534	496	0	0	40	19	
6	0	0	0	0	529	504	2	0	40	19	
7	0	0	0	0	515	511	2	0	40	19	
8	0	0	0	0	513	519	3	0	40	19	
9	0	0	0	0	505	521	1	0	40	19	
10	0	0	0	0	489	522	3	0	40	19	
11	0	0	0	0	509	522	2	1018	40	19	
12	0	0	0	0	499	518	3	1018	40	19	
13	0	0	0	0	472	515	1	1018	40	19	
14	0	0	0	0	490	515	3	1018	40	19	
15	0	0	0	0	516	516	1	1018	40	19	
0	0	0	0	0	526	512	2	1018	40	19	
1	0	0	0	0	534	509	2	1018	40	19	
2	0	0	0	0	535	506	2	1018	40	19	
3	0	0	0	0	539	499	0	0	40	19	
4	0	0	0	0	537	497	3	0	40	19	
5	0	0	0	0	538	493	1	0	40	19	
6	0	0	0	0	526	496	1	0	40	19	
7	0	0	0	0	519	504	0	0	40	19	
8	0	0	0	0	514	512	3	0	40	19	
9	0	0	0	0	511	515	3	0	40	19	
10	0	0	0	0	511	519	1	0	40	19	
11	0	0	0	0	508	519	1	0	40	19	
12	0	0	0	0	518	518	3	1018	40	19	
13	0	0	0	0	516	515	2	1018	40	19	
14	0	0	0	0	513	512	1	1018	40	19	
15	0	0	0	0	516	514	2	1018	40	19	
0	0	0	0	0	515	513	2	1019	40	19	
1	0	0	0	0	509	508	0	1018	40	19	
2	0	0	0	0	513	507	2	1018	40	19	
3	0	0	0	0	508	502	2	1018	40	19	
4	0	0	0	0	500	497	1	0	40	19	
5	0	0	0	0	506	492	0	0	40	19	
6	0	0	0	0	523	491	2	0	40	19	
7	0	0	0	0	521	500	1	0	40	19	
8	0	0	0	0	514	507	1	0	40	19	
9	0	0	0	0	506	514	2	0	40	19	
10	0	0	0	0	505	518	3	0	40	19	
11	0	0	0	0	506	521	1	0	40	19	
12	0	0	0	0	509	519	3	813	40	19	
13	0	0	0	0	511	518	3	1019	40	19	
14	0	0	0	0	516	515	1	1018	40	19	
15	0	0	0	0	511	514	0	1018	40	19	
0	0	0	0	0	509	515	2	1018	40	19	
1	0	0	0	0	507	515	3	1018	40	19	
2	0	0	0	0	508	512	0	1018	40	19	
3	0	0	0	0	511	507	2	1018	40	19	
4	0	0	0	0	519	500	1	126	40	19	
5	0	0	0	0	533	496	1	0	40	19	
6	0	0	0	0	535	495	0	0	40	19	
7	0	0	0	0	532	498	2	0	40	19	
8	0	0	0	0	523	505	2	0	40	19	
9	0	0	0	0	515	511	1	0	40	19	
10	0	0	0	0	498	516	1	0	40	19	
11	0	0	0	0	478	519	2	0	40	19	
12	0	0	0	0	480	520	3	0	40	19	
13	0	0	0	0	496	520	1	1018	40	19	
14	0	0	0	0	511	520	3	1018	40	19	
15	0	0	0	0	522	516	3	1018	40	19	
0	0	0	0	0	525	514	3	1019	40	19	
1	0	0	0	0	518	516	0	1019	40	19	
2	0	0	0	0	514	514	2	1018	40	19	
3	0	0	0	0	516	510	1	1018	40	19	
4	0	0	0	0	520	509	2	1019	40	19	
5	0	0	0	0	529	503	2	1018	40	19	
6	0	0	0	0	525	499	2	0	40	19	
7	0	0	0	0	528	495	0	0	40	19	
8	0	0	0	0	519	497	1	0	40	19	
9	0	0	0	0	506	505	2	0	40	19	
10	0	0	0	0	501	512	2	0	40	19	
11	0	0	0	0	499	518	1	0	40	19	
12	0	0	0	0	491	519	3	0	40	19	
13	0	0	0	0	475	519	2	0	40	19	
14	0	0	0	0	480	519	3	1018	40	19	
15	0	0	0	0	500	517	3	1018	40	19	
0	0	0	0	0	513	515	3	1019	40	19	
1	0	0	0	0	516	514	1	1018	40	19	
2	0	0	0	0	521	514	2	1018	40	19	
3	0	0	0	0	523	512	2	1018	40	19	
4	0	0	0	0	528	509	2	1019	40	19	
5	0	0	0	0	527	504	0	0	40	19	
6	0	0	0	0	527	501	2	0	40	19	
7	0	0	0	0	529	497	2	0	40	19	
8	0	0	0	0	528	496	1	0	40	19	
9	0	0	0	0	521	502	0	0	40	19	
10	0	0	0	0	512	509	2	0	40	19	
11	0	0	0	0	511	518	3	0	40	19	
12	0	0	0	0	510	522	3	0	40	19	
13	0	0	0	0	506	525	1	0	40	19	
14	0	0	0	0	507	524	3	0	40	19	
15	0	0	0	0	508	521	3	1018	40	19	
0	0	0	0	0	512	515	3	1019	40	19	
1	0	0	0	0	516	515	1	1018	40	19	
2	0	0	0	0	512	516	1	1018	40	19	
3	0	0	0	0	508	516	2	1018	40	19	
4	0	0	0	0	510	513	3	1018	40	19	
5	0	0	0	0	516	507	1	1018	40	19	
6	0	0	0	0	523	501	0	0	40	19	
7	0	0	0	0	524	496	2	0	40	19	
8	0	0	0	0	522	491	2	0	40	19	
9	0	0	0	0	522	491	0	0	40	19	
10	0	0	0	0	515	498	0	0	40	19	
11	0	0	0	0	506	503	2	0	40	19	
12	0	0	0	0	504	511	3	0	40	19	
13	0	0	0	0	501	515	1	0	40	19	
14	0	0	0	0	505	518	1	0	40	19	
15	0	0	0	0	504	520	3	981	40	19	
0	0	0	0	0	509	517	3	1019	40	19	
1	0	0	0	0	516	514	3	1018	40	19	
2	0	0	0	0	510	516	1	1018	40	19	
3	0	0	0	0	508	516	0	1018	40	19	
4	0	0	0	0	511	512	2	1018	40	19	
5	0	0	0	0	514	509	2	1018	40	19	
6	0	0	0	0	518	506	1	0	40	19	
7	0	0	0	0	522	502	0	0	40	19	
8	0	0	0	0	522	496	3	0	40	19	
9	0	0	0	0	522	493	1	0	40	19	
10	0	0	0	0	515	498	2	0	40	19	
11	0	0	0	0	511	504	0	0	40	19	
12	0	0	0	0	508	508	3	0	40	19	
13	0	0	0	0	503	513	3	0	40	19	
14	0	0	0	0	507	518	3	0	40	19	
15	0	0	0	0	509	521	1	0	40	19	
0	0	0	0	0	510	519	3	1018	40	19	
1	0	0	0	0	515	518	3	1018	40	19	
2	0	0	0	0	516	514	3	1018	40	19	
3	0	0	0	0	511	517	0	1018	40	19	
4	0	0	0	0	512	515	3	1019	40	19	
5	0	0	0	0	513	514	2	1018	40	19	
6	0	0	0	0	517	509	1	1018	40	19	
7	0	0	0	0	518	505	0	1017	40	19	
8	0	0	0	0	516	499	2	0	40	19	
9	0	0	0	0	512	495	2	0	40	19	
10	0	0	0	0	516	494	0	0	40	19	
11	0	0	0	0	515	500	2	0	40	19	
12	0	0	0	0	511	508	2	0	40	19	
13	0	0	0	0	508	512	1	0	40	19	
14	0	0	0	0	506	516	3	0	40	19	
15	0	0	0	0	508	521	3	0	40	19	
0	0	0	0	0	509	522	4	1019	40	19	
1	0	0	0	0	513	518	1	1018	40	19	
2	0	0	0	0	516	517	3	1018	40	19	
3	0	0	0	0	512	517	3	1018	40	19	
4	0	0	0	0	512	516	3	1019	40	19	
5	0	0	0	0	513	515	3	1018	40	19	
6	0	0	0	0	516	511	3	1018	40	19	
7	0	0	0	0	520	508	0	1018	40	19	
8	0	0	0	0	514	503	1	1019	40	19	
9	0	0	0	0	503	499	1	159	40	19	
10	0	0	0	0	515	495	1	0	40	19	
11	0	0	0	0	519	495	0	0	40	19	
12	0	0	0	0	513	504	3	0	40	19	
13	0	0	0	0	510	506	3	0	40	19	
14	0	0	0	0	507	515	1	0	40	19	
15	0	0	0	0	511	519	3	0	40	19	
0	0	0	0	0	514	523	3	0	40	19	
1	0	0	0	0	513	521	3	1018	40	19	
2	0	0	0	0	514	519	1	1018	40	19	
3	0	0	0	0	514	515	3	1018	40	19	
4	0	0	0	0	513	515	3	1019	40	19	
5	0	0	0	0	511	515	1	1018	40	19	
6	0	0	0	0	509	515	3	1018	40	19	
7	0	0	0	0	508	512	2	1018	40	19	
8	0	0	0	0	513	508	3	1018	40	19	
9	0	0	0	0	521	503	0	715	40	19	
10	0	0	0	0	521	498	2	0	40	19	
11	0	0	0	0	521	494	2	0	40	19	
12	0	0	0	0	520	496	3	0	40	19	
13	0	0	0	0	517	504	0	0	40	19	
14	0	0	0	0	506	513	2	0	40	19	
15	0	0	0	0	504	520	1	0	40	19	
0	0	0	0	0	504	521	1	0	40	19	
1	0	0	0	0	507	520	3	0	40	19	
2	0	0	0	0	507	524	4	1018	40	19	
3	0	0	0	0	508	519	1	1018	40	19	
4	0	0	0	0	510	516	3	1019	40	19	
5	0	0	0	0	507	515	2	1018	40	19	
6	0	0	0	0	507	516	1	1018	40	19	
7	0	0	0	0	514	516	0	1018	40	19	
8	0	0	0	0	515	512	2	1019	40	19	
9	0	0	0	0	519	506	2	0	40	19	
10	0	0	0	0	528	499	0	0	40	19	
11	0	0	0	0	528	495	0	0	40	19	
12	0	0	0	0	526	493	1	0	40	19	
13	0	0	0	0	520	499	2	0	40	19	
14	0	0	0	0	514	508	1	0	40	19	
15	0	0	0	0	507	516	2	0	40	19	
0	0	0	0	0	499	520	4	0	40	19	
1	0	0	0	0	498	523	3	0	40	19	
2	0	0	0	0	508	523	1	0	40	19	
3	0	0	0	0	514	521	3	1018	40	19	
4	0	0	0	0	518	517	3	1018	40	19	
5	0	0	0	0	516	517	1	1018	40	19	
6	0	0	0	0	514	516	1	1018	40	19	
7	0	0	0	0	519	514	2	1018	40	19	
8	0	0	0	0	514	510	1	1019	40	19	
9	0	0	0	0	516	506	0	1018	40	19	
10	0	0	0	0	511	501	2	0	40	19	
11	0	0	0	0	506	496	1	0	40	19	
12	0	0	0	0	509	492	2	0	40	19	
13	0	0	0	0	508	493	2	0	40	19	
14	0	0	0	0	500	500	2	0	40	19	
15	0	0	0	0	502	508	0	0	40	19	
0	0	0	0	0	508	516	3	0	40	19	
1	0	0	0	0	513	517	3	0	40	19	
2	0	0	0	0	518	520	2	0	40	19	
3	0	0	0	0	514	520	1	1018	40	19	
4	0	0	0	0	514	517	3	1019	40	19	
5	0	0	0	0	521	514	3	1018	40	19	
6	0	0	0	0	516	515	1	1018	40	19	
7	0	0	0	0	515	516	1	1018	40	19	
8	0	0	0	0	512	517	3	1019	40	19	
9	0	0	0	0	512	513	2	1018	40	19	
10	0	0	0	0	515	508	0	1018	40	19	
11	0	0	0	0	519	502	2	726	40	19	
12	0	0	0	0	521	496	1	0	40	19	
13	0	0	0	0	519	493	0	0	40	19	
14	0	0	0	0	515	496	2	0	40	19	
15	0	0	0	0	507	503	2	0	40	19	
0	0	0	0	0	508	509	2	0	40	19	
1	0	0	0	0	504	513	0	0	40	19	
2	0	0	0	0	506	517	3	0	40	19	
3	0	0	0	0	507	520	3	111	40	19	
4	0	0	0	0	510	519	4	1019	40	19	
5	0	0	0	0	512	514	1	1018	40	19	
6	0	0	0	0	508	513	2	1018	40	19	
7	0	0	0	0	510	515	1	1018	40	19	
8	0	0	0	0	511	515	3	1019	40	19	
9	0	0	0	0	519	510	2	1018	40	19	
10	0	0	0	0	535	506	2	1018	40	19	
11	0	0	0	0	529	501	0	1018	40	19	
12	0	0	0	0	523	495	1	1017	40	19	
13	0	0	0	0	521	493	2	0	40	19	
14	0	0	0	0	516	492	1	0	40	19	
15	0	0	0	0	509	497	0	0	40	19	
0	0	0	0	0	495	503	2	0	40	20	
1	0	0	0	0	481	510	3	0	40	19	
2	0	0	0	0	497	514	1	0	40	19	
3	0	0	0	0	510	521	3	0	40	19	
4	0	0	0	0	507	523	5	1019	40	19	
5	0	0	0	0	505	520	3	1019	40	19	
6	0	0	0	0	516	517	1	1018	40	19	
7	0	0	0	0	519	516	3	1018	40	19	
8	0	0	0	0	517	518	3	1019	40	19	
9	0	0	0	0	509	518	1	1018	40	19	
10	0	0	0	0	498	513	0	1018	40	19	
11	0	0	0	0	499	509	1	1018	40	19	
12	0	0	0	0	507	504	1	1019	40	19	
13	0	0	0	0	530	498	0	102	40	19	
14	0	0	0	0	536	495	2	0	40	19	
15	0	0	0	0	529	495	2	0	40	19	
0	0	0	0	0	523	501	0	0	40	19	
1	0	0	0	0	513	506	0	0	40	19	
2	0	0	0	0	510	512	2	0	40	19	
3	0	0	0	0	505	517	1	0	40	19	
4	0	0	0	0	495	518	3	0	40	19	
5	0	0	0	0	500	519	3	902	40	19	
6	0	0	0	0	510	518	3	1018	40	19	
7	0	0	0	0	516	514	1	1018	40	19	
8	0	0	0	0	516	512	3	1019	40	19	
9	0	0	0	0	508	514	3	1018	40	19	
10	0	0	0	0	519	515	1	1018	40	19	
11	0	0	0	0	527	512	0	1018	40	19	
12	0	0	0	0	534	508	1	1018	40	19	
13	0	0	0	0	538	502	2	0	40	19	
14	0	0	0	0	535	499	0	0	40	19	
15	0	0	0	0	535	495	0	0	40	19	
0	0	0	0	0	525	497	3	0	40	19	
1	0	0	0	0	517	504	2	0	40	19	
2	0	0	0	0	500	510	1	0	40	19	
3	0	0	0	0	483	516	1	0	40	19	
4	0	0	0	0	486	520	3	0	40	19	
5	0	0	0	0	484	520	3	0	40	19	
6	0	0	0	0	486	520	1	1018	40	19	
7	0	0	0	0	502	518	2	1018	40	19	
8	0	0	0	0	502	515	3	1019	40	19	
9	0	0	0	0	504	515	3	1018	40	19	
10	0	0	0	0	507	515	1	1018	40	19	
11	0	0	0	0	526	513	1	1018	40	19	
12	0	0	0	0	539	509	3	1019	40	19	
13	0	0	0	0	537	504	2	1018	40	19	
14	0	0	0	0	537	499	0	0	40	19	
15	0	0	0	0	537	494	0	0	40	19	
0	0	0	0	0	520	493	3	0	40	19	
1	0	0	0	0	498	498	2	0	40	19	
2	0	0	0	0	485	506	2	0	40	19	
3	0	0	0	0	485	513	1	0	40	19	
4	0	0	0	0	487	519	3	0	40	19	
5	0	0	0	0	499	523	1	0	40	19	
6	0	0	0	0	506	524	3	0	40	19	
7	0	0	0	0	513	523	3	1018	40	19	
8	0	0	0	0	525	519	3	1019	40	19	
9	0	0	0	0	533	518	0	1018	40	19	
10	0	0	0	0	532	518	3	1018	40	19	
11	0	0	0	0	530	516	2	1018	40	19	
12	0	0	0	0	524	512	2	1018	40	19	
13	0	0	0	0	515	508	0	1018	40	19	
14	0	0	0	0	522	502	2	0	40	19	
15	0	0	0	0	519	499	2	0	40	19	
0	0	0	0	0	508	495	1	0	40	19	
1	0	0	0	0	506	495	0	0	40	19	
2	0	0	0	0	504	502	2	0	40	19	
3	0	0	0	0	510	511	1	0	40	19	
4	0	0	0	0	504	517	3	0	40	19	
5	0	0	0	0	527	519	3	0	40	19	
6	0	0	0	0	536	522	3	0	40	19	
7	0	0	0	0	526	523	1	0	40	19	
8	0	0	0	0	511	519	3	1018	40	19	
9	0	0	0	0	512	515	3	1018	40	19	
10	0	0	0	0	508	517	3	1018	40	19	
11	0	0	0	0	499	516	0	1018	40	19	
12	0	0	0	0	464	515	1	1018	40	19	
13	0	0	0	0	460	512	2	1018	40	19	
14	0	0	0	0	492	508	1	395	40	19	
15	0	0	0	0	518	502	0	0	40	19	
0	0	0	0	0	529	498	1	0	40	19	
1	0	0	0	0	531	494	1	0	40	19	
2	0	0	0	0	527	497	1	0	40	19	
3	0	0	0	0	523	504	0	0	40	19	
4	0	0	0	0	519	509	1	0	40	19	
5	0	0	0	0	509	515	2	0	40	19	
6	0	0	0	0	509	519	1	0	40	19	
7	0	0	0	0	511	521	2	0	40	19	
8	0	0	0	0	512	522	3	1019	40	19	
9	0	0	0	0	518	518	1	1018	40	19	
10	0	0	0	0	520	515	3	1019	40	19	
11	0	0	0	0	521	516	2	1018	40	19	
12	0	0	0	0	521	515	2	1019	40	19	
13	0	0	0	0	519	512	0	1018	40	19	
14	0	0	0	0	527	509	2	1018	40	19	
15	0	0	0	0	532	505	1	1018	40	19	
0	0	0	0	0	532	498	1	86	40	19	
1	0	0	0	0	520	494	2	0	40	19	
2	0	0	0	0	508	495	2	0	40	19	
3	0	0	0	0	492	500	0	0	40	19	
4	0	0	0	0	492	507	3	0	40	19	
5	0	0	0	0	491	512	2	0	40	19	
6	0	0	0	0	497	517	2	0	40	19	
7	0	0	0	0	505	522	0	0	40	19	
8	0	0	0	0	508	521	4	1019	40	19	
9	0	0	0	0	514	518	4	1018	40	19	
10	0	0	0	0	522	515	1	1018	40	19	
11	0	0	0	0	521	514	1	1018	40	19	
12	0	0	0	0	519	517	4	1019	40	19	
13	0	0	0	0	507	515	3	1018	40	19	
14	0	0	0	0	505	511	1	1018	40	19	
15	0	0	0	0	514	508	0	1018	40	19	
0	0	0	0	0	508	503	3	1019	40	19	
1	0	0	0	0	489	497	2	1018	40	19	
2	0	0	0	0	511	494	0	0	40	19	
3	0	0	0	0	523	493	1	0	40	19	
4	0	0	0	0	520	500	2	0	40	19	
5	0	0	0	0	513	506	1	0	40	19	
6	0	0	0	0	513	515	1	0	40	19	
7	0	0	0	0	513	520	2	0	40	19	
8	0	0	0	0	512	519	3	0	40	19	
9	0	0	0	0	511	520	1	1018	40	19	
10	0	0	0	0	513	518	3	1018	40	19	
11	0	0	0	0	514	513	3	1018	40	19	
12	0	0	0	0	518	515	2	1019	40	19	
13	0	0	0	0	523	513	0	1018	40	19	
14	0	0	0	0	522	511	2	1018	40	19	
15	0	0	0	0	522	509	2	1018	40	19	
0	0	0	0	0	529	507	3	1018	40	19	
1	0	0	0	0	527	500	0	0	40	19	
2	0	0	0	0	519	496	2	0	40	19	
3	0	0	0	0	513	494	0	0	40	19	
4	0	0	0	0	524	498	1	0	40	19	
5	0	0	0	0	526	506	2	0	40	19	
6	0	0	0	0	514	511	1	0	40	19	
7	0	0	0	0	500	518	0	0	40	19	
8	0	0	0	0	495	521	3	0	40	19	
9	0	0	0	0	496	520	3	0	40	19	
10	0	0	0	0	502	520	2	1018	40	19	
11	0	0	0	0	495	518	1	1018	40	19	
12	0	0	0	0	480	513	3	1018	40	19	
13	0	0	0	0	486	514	3	1018	40	19	
14	0	0	0	0	507	513	0	1018	40	19	
15	0	0	0	0	523	513	2	1018	40	19	
0	0	0	0	0	535	507	2	1019	40	19	
1	0	0	0	0	531	502	1	0	40	19	
2	0	0	0	0	528	499	0	0	40	19	
3	0	0	0	0	528	495	2	0	40	19	
4	0	0	0	0	522	492	2	0	40	19	
5	0	0	0	0	510	500	0	0	40	19	
6	0	0	0	0	507	507	2	0	40	19	
7	0	0	0	0	499	516	2	0	40	19	
8	0	0	0	0	496	519	3	0	40	19	
9	0	0	0	0	504	523	1	0	40	19	
10	0	0	0	0	507	524	3	0	40	19	
11	0	0	0	0	505	524	2	1018	40	19	
12	0	0	0	0	512	523	3	1019	40	19	
13	0	0	0	0	513	520	3	1018	40	19	
14	0	0	0	0	512	520	3	1018	40	19	
15	0	0	0	0	519	519	0	1018	40	19	
0	0	0	0	0	518	515	3	1019	40	19	
1	0	0	0	0	514	508	2	1018	40	19	
2	0	0	0	0	525	502	1	1018	40	19	
3	0	0	0	0	526	500	0	0	40	19	
4	0	0	0	0	527	496	3	0	40	19	
5	0	0	0	0	527	495	2	0	40	19	
6	0	0	0	0	517	503	0	0	40	19	
7	0	0	0	0	509	510	0	0	40	19	
8	0	0	0	0	520	517	4	0	40	19	
9	0	0	0	0	521	519	2	0	40	19	
10	0	0	0	0	518	521	1	0	40	19	
11	0	0	0	0	515	522	3	1018	40	19	
12	0	0	0	0	508	519	4	1019	40	19	
13	0	0	0	0	505	515	1	1018	40	19	
14	0	0	0	0	501	515	1	1018	40	19	
15	0	0	0	0	495	515	2	1018	40	19	
0	0	0	0	0	484	513	1	1019	40	19	
1	0	0	0	0	474	510	0	1018	40	19	
2	0	0	0	0	487	507	2	1018	40	19	
3	0	0	0	0	514	501	2	1018	40	19	
4	0	0	0	0	531	496	1	0	40	19	
5	0	0	0	0	539	492	0	0	40	19	
6	0	0	0	0	528	496	2	0	40	19	
7	0	0	0	0	520	505	1	0	40	19	
8	0	0	0	0	516	510	3	0	40	19	
9	0	0	0	0	510	515	3	0	40	19	
10	0	0	0	0	511	519	3	0	40	19	
11	0	0	0	0	514	520	1	0	40	19	
12	0	0	0	0	516	520	4	1019	40	19	
13	0	0	0	0	514	516	3	1018	40	19	
14	0	0	0	0	514	513	3	1018	40	19	
15	0	0	0	0	512	514	0	1018	40	19	
0	0	0	0	0	521	515	1	1018	40	19	
1	0	0	0	0	525	512	2	1018	40	19	
2	0	0	0	0	521	508	2	1018	40	19	
3	0	0	0	0	510	504	0	0	40	19	
4	0	0	0	0	506	497	1	0	40	19	
5	0	0	0	0	518	494	2	0	40	19	
6	0	0	0	0	530	494	2	0	40	19	
7	0	0	0	0	528	500	1	0	40	19	
8	0	0	0	0	518	504	1	0	40	19	
9	0	0	0	0	509	512	2	0	40	19	
10	0	0	0	0	499	517	3	0	40	19	
11	0	0	0	0	493	522	2	0	40	19	
12	0	0	0	0	496	522	3	0	40	19	
13	0	0	0	0	495	517	2	1018	40	19	
14	0	0	0	0	492	515	1	1018	40	19	
15	0	0	0	0	502	514	2	1018	40	19	
0	0	0	0	0	513	516	3	1019	40	19	
1	0	0	0	0	520	515	1	1018	40	19	
2	0	0	0	0	518	513	3	1018	40	19	
3	0	0	0	0	518	509	2	1018	40	19	
4	0	0	0	0	520	502	1	81	40	19	
5	0	0	0	0	531	499	0	0	40	19	
6	0	0	0	0	528	495	2	0	40	19	
7	0	0	0	0	522	494	2	0	40	19	
8	0	0	0	0	518	501	2	0	40	19	
9	0	0	0	0	513	505	1	0	40	19	
10	0	0	0	0	511	516	3	0	40	19	
11	0	0	0	0	502	520	1	0	40	19	
12	0	0	0	0	487	521	3	0	40	19	
13	0	0	0	0	496	521	3	1018	40	19	
14	0	0	0	0	506	517	2	1018	40	19	
15	0	0	0	0	520	514	0	1018	40	19	
0	0	0	0	0	525	513	3	1019	40	19	
1	0	0	0	0	528	515	3	1018	40	19	
2	0	0	0	0	524	514	1	1018	40	19	
3	0	0	0	0	515	511	1	1018	40	19	
4	0	0	0	0	524	507	2	1017	40	19	
5	0	0	0	0	526	502	1	0	40	19	
6	0	0	0	0	526	496	0	0	40	19	
7	0	0	0	0	516	492	1	0	40	19	
8	0	0	0	0	499	495	1	0	40	19	
9	0	0	0	0	486	500	0	0	40	19	
10	0	0	0	0	486	508	2	0	40	19	
11	0	0	0	0	489	515	3	0	40	19	
12	0	0	0	0	504	517	2	0	40	19	
13	0	0	0	0	509	518	1	0	40	19	
14	0	0	0	0	509	517	3	1018	40	19	
15	0	0	0	0	509	515	3	1018	40	19	
0	0	0	0	0	516	511	3	1018	40	19	
1	0	0	0	0	515	512	1	1018	40	19	
2	0	0	0	0	519	511	3	1018	40	19	
3	0	0	0	0	527	508	1	1018	40	19	
4	0	0	0	0	527	506	3	1018	40	19	
5	0	0	0	0	533	502	2	1018	40	19	
6	0	0	0	0	530	498	1	0	40	19	
7	0	0	0	0	522	496	0	0	40	19	
8	0	0	0	0	515	493	1	0	40	19	
9	0	0	0	0	505	498	2	0	40	19	
10	0	0	0	0	504	507	2	0	40	19	
11	0	0	0	0	505	514	0	0	40	19	
12	0	0	0	0	507	518	1	0	40	19	
13	0	0	0	0	510	521	3	0	40	19	
14	0	0	0	0	512	521	2	574	40	19	
15	0	0	0	0	511	520	1	1018	40	19	
0	0	0	0	0	515	515	3	1019	40	19	
1	0	0	0	0	511	513	3	1018	40	19	
2	0	0	0	0	499	517	1	1018	40	19	
3	0	0	0	0	505	516	0	1018	40	19	
4	0	0	0	0	510	513	2	1019	40	19	
5	0	0	0	0	515	509	2	1018	40	19	
6	0	0	0	0	518	503	0	258	40	19	
7	0	0	0	0	520	498	2	0	40	19	
8	0	0	0	0	527	493	3	0	40	19	
9	0	0	0	0	527	493	2	0	40	19	
10	0	0	0	0	527	499	0	0	40	19	
11	0	0	0	0	515	507	2	0	40	19	
12	0	0	0	0	504	512	3	0	40	19	
13	0	0	0	0	499	515	1	0	40	19	
14	0	0	0	0	500	518	3	0	40	19	
15	0	0	0	0	500	517	3	688	40	19	
0	0	0	0	0	505	515	4	1019	40	19	
1	0	0	0	0	510	514	1	1018	40	19	
2	0	0	0	0	512	515	3	1018	40	19	
3	0	0	0	0	506	516	1	1018	40	19	
4	0	0	0	0	494	514	1	1018	40	19	
5	0	0	0	0	489	511	2	1018	40	19	
6	0	0	0	0	508	509	2	926	40	19	
7	0	0	0	0	526	501	0	0	40	19	
8	0	0	0	0	524	499	3	0	40	19	
9	0	0	0	0	520	496	1	0	40	19	
10	0	0	0	0	518	498	0	0	40	19	
11	0	0	0	0	520	506	0	0	40	19	
12	0	0	0	0	524	512	3	0	40	19	
13	0	0	0	0	516	515	3	0	40	19	
14	0	0	0	0	511	519	0	0	40	19	
15	0	0	0	0	523	520	3	0	40	19	
0	0	0	0	0	527	520	3	1019	40	19	
1	0	0	0	0	524	518	1	1018	40	19	
2	0	0	0	0	519	514	3	1018	40	19	
3	0	0	0	0	516	516	2	1018	40	19	
4	0	0	0	0	520	516	2	1019	40	19	
5	0	0	0	0	518	514	0	1018	40	19	
6	0	0	0	0	518	512	2	1018	40	19	
7	0	0	0	0	504	507	2	1018	40	19	
8	0	0	0	0	509	501	1	0	40	19	
9	0	0	0	0	511	497	0	0	40	19	
10	0	0	0	0	500	496	2	0	40	19	
11	0	0	0	0	492	502	0	0	40	19	
12	0	0	0	0	482	508	1	0	40	19	
13	0	0	0	0	468	514	2	0	40	19	
14	0	0	0	0	472	519	3	0	40	19	
15	0	0	0	0	493	522	0	0	40	19	
0	0	0	0	0	511	521	3	896	40	19	
1	0	0	0	0	523	520	4	1019	40	19	
2	0	0	0	0	532	518	1	1018	40	19	
3	0	0	0	0	534	515	1	1018	40	19	
4	0	0	0	0	525	518	4	1019	40	19	
5	0	0	0	0	520	514	3	1018	40	19	
6	0	0	0	0	514	511	1	1018	40	19	
7	0	0	0	0	512	510	2	1018	40	19	
8	0	0	0	0	514	505	3	1019	40	19	
9	0	0	0	0	523	500	1	0	40	19	
10	0	0	0	0	534	496	0	0	40	19	
11	0	0	0	0	540	497	2	0	40	19	
12	0	0	0	0	532	505	2	0	40	19	
13	0	0	0	0	531	509	1	0	40	19	
14	0	0	0	0	516	515	3	0	40	19	
15	0	0	0	0	506	519	3	0	40	19	
0	0	0	0	0	498	522	2	0	40	19	
1	0	0	0	0	497	522	1	1017	40	19	
2	0	0	0	0	493	520	3	1018	40	19	
3	0	0	0	0	492	516	2	1018	40	19	
4	0	0	0	0	497	516	3	1019	40	19	
5	0	0	0	0	503	518	3	1019	40	19	
6	0	0	0	0	512	517	2	1018	40	19	
7	0	0	0	0	522	513	0	1018	40	19	
8	0	0	0	0	523	510	3	1018	40	19	
9	0	0	0	0	525	502	2	0	40	19	
10	0	0	0	0	528	497	1	0	40	19	
11	0	0	0	0	535	495	0	0	40	19	
12	0	0	0	0	532	497	1	0	40	19	
13	0	0	0	0	524	504	1	0	40	19	
14	0	0	0	0	516	511	1	0	40	19	
15	0	0	0	0	507	519	2	0	40	19	
0	0	0	0	0	499	523	2	0	40	19	
1	0	0	0	0	500	522	1	0	40	18	
2	0	0	0	0	500	522	3	1018	40	18	
3	0	0	0	0	503	519	3	1018	40	18	
4	0	0	0	0	497	515	2	1019	40	19	
5	0	0	0	0	491	514	0	1019	40	18	
6	0	0	0	0	498	513	3	1018	40	18	
7	0	0	0	0	508	512	2	1018	40	18	
8	0	0	0	0	520	510	2	1019	40	18	
9	0	0	0	0	528	504	1	1018	40	18	
10	0	0	0	0	535	499	0	0	40	18	
11	0	0	0	0	531	496	2	0	40	18	
12	0	0	0	0	524	496	2	0	40	18	
13	0	0	0	0	515	499	1	0	40	18	
14	0	0	0	0	503	506	0	0	40	18	
15	0	0	0	0	502	514	2	0	40	18	
0	0	0	0	0	495	519	3	0	40	18	
1	0	0	0	0	493	522	2	0	40	18	
2	0	0	0	0	507	523	2	582	40	18	
3	0	0	0	0	513	522	3	1018	40	18	
4	0	0	0	0	521	519	2	1019	40	18	
5	0	0	0	0	528	516	0	1018	40	18	
6	0	0	0	0	531	518	2	1018	40	18	
7	0	0	0	0	530	517	1	1018	40	18	
8	0	0	0	0	522	513	2	1018	40	18	
9	0	0	0	0	520	510	2	1018	40	18	
10	0	0	0	0	510	505	2	0	40	18	
11	0	0	0	0	509	503	0	0	40	18	
12	0	0	0	0	516	499	3	0	40	18	
13	0	0	0	0	517	497	2	0	40	18	
14	0	0	0	0	502	504	1	0	40	18	
15	0	0	0	0	488	510	0	0	40	18	
0	0	0	0	0	484	515	1	0	40	18	
1	0	0	0	0	493	520	3	0	40	18	
2	0	0	0	0	496	520	2	0	40	18	
3	0	0	0	0	508	520	1	777	40	18	
4	0	0	0	0	521	518	2	1019	40	18	
5	0	0	0	0	528	515	3	1018	40	18	
6	0	0	0	0	531	515	0	1018	40	18	
7	0	0	0	0	527	516	2	1018	40	18	
8	0	0	0	0	518	513	2	1019	40	18	
9	0	0	0	0	517	511	0	1018	40	18	
10	0	0	0	0	523	508	2	474	40	18	
11	0	0	0	0	520	503	2	0	40	18	
12	0	0	0	0	522	497	2	0	40	18	
13	0	0	0	0	527	494	0	0	40	18	
14	0	0	0	0	519	496	2	0	40	18	
15	0	0	0	0	503	503	2	0	40	18	
0	0	0	0	0	491	509	2	0	40	18	
1	0	0	0	0	495	516	1	0	40	18	
2	0	0	0	0	508	520	3	0	40	18	
3	0	0	0	0	511	521	2	0	40	18	
4	0	0	0	0	512	523	3	1018	40	18	
5	0	0	0	0	514	519	1	1018	40	18	
6	0	0	0	0	516	516	3	1018	40	18	
7	0	0	0	0	511	517	3	1018	40	18	
8	0	0	0	0	509	515	1	1019	40	18	
9	0	0	0	0	508	511	0	1018	40	18	
10	0	0	0	0	506	509	2	1018	40	18	
11	0	0	0	0	503	507	2	203	40	18	
12	0	0	0	0	498	499	1	0	40	18	
13	0	0	0	0	499	495	0	0	40	18	
14	0	0	0	0	521	494	2	0	40	18	
15	0	0	0	0	525	496	2	0	40	18	
0	0	0	0	0	518	504	2	0	40	18	
1	0	0	0	0	510	511	1	0	40	18	
2	0	0	0	0	520	516	3	0	40	18	
3	0	0	0	0	527	520	2	0	40	18	
4	0	0	0	0	536	519	2	0	40	18	
5	0	0	0	0	536	516	1	1018	40	18	
6	0	0	0	0	532	515	3	1018	40	18	
7	0	0	0	0	516	514	3	1018	40	18	
8	0	0	0	0	503	514	3	1018	40	18	
9	0	0	0	0	499	513	0	1018	40	18	
10	0	0	0	0	498	512	2	1018	40	18	
11	0	0	0	0	494	509	2	1018	40	18	
12	0	0	0	0	485	505	2	0	40	18	
13	0	0	0	0	492	500	0	0	40	18	
14	0	0	0	0	500	496	2	0	40	18	
15	0	0	0	0	510	496	1	0	40	18	
0	0	0	0	0	515	502	1	0	40	18	
1	0	0	0	0	511	508	2	0	40	18	
2	0	0	0	0	506	515	1	0	40	18	
3	0	0	0	0	507	518	0	0	40	18	
4	0	0	0	0	512	521	3	0	40	18	
5	0	0	0	0	520	519	3	1019	40	18	
6	0	0	0	0	526	516	1	1018	40	18	
7	0	0	0	0	531	512	3	1018	40	18	
8	0	0	0	0	527	511	3	1019	40	18	
9	0	0	0	0	523	512	2	1018	40	18	
10	0	0	0	0	524	511	0	1018	40	18	
11	0	0	0	0	532	508	2	1018	40	18	
12	0	0	0	0	536	506	2	1019	40	18	
13	0	0	0	0	532	499	0	501	40	18	
14	0	0	0	0	527	496	2	0	40	18	
15	0	0	0	0	518	496	2	0	40	18	
0	0	0	0	0	501	498	2	0	40	18	
1	0	0	0	0	491	504	0	0	40	18	
2	0	0	0	0	488	510	3	0	40	18	
3	0	0	0	0	484	516	1	0	40	18	
4	0	0	0	0	479	519	3	0	40	18	
5	0	0	0	0	480	517	3	0	40	18	
6	0	0	0	0	498	516	3	1018	40	18	
7	0	0	0	0	509	514	1	1018	40	18	
8	0	0	0	0	504	510	1	1018	40	18	
9	0	0	0	0	505	512	3	1019	40	18	
10	0	0	0	0	515	513	0	1018	40	18	
11	0	0	0	0	522	512	2	1018	40	18	
12	0	0	0	0	525	508	2	1019	40	18	
13	0	0	0	0	526	504	0	538	40	18	
14	0	0	0	0	533	499	2	0	40	18	
15	0	0	0	0	532	495	2	0	40	18	
0	0	0	0	0	532	496	2	0	40	19	
1	0	0	0	0	531	500	2	0	40	18	
2	0	0	0	0	522	505	3	0	40	18	
3	0	0	0	0	514	513	0	0	40	19	
4	0	0	0	0	512	517	3	0	40	19	
5	0	0	0	0	509	519	3	0	40	19	
6	0	0	0	0	509	520	1	1018	40	19	
7	0	0	0	0	514	518	3	1018	40	19	
8	0	0	0	0	513	515	4	1019	40	19	
9	0	0	0	0	513	512	1	1018	40	19	
10	0	0	0	0	508	515	1	1018	40	19	
11	0	0	0	0	503	514	2	1018	40	19	
12	0	0	0	0	493	513	2	1019	40	19	
13	0	0	0	0	498	509	0	1019	40	19	
14	0	0	0	0	510	506	2	1018	40	19	
15	0	0	0	0	520	502	1	0	40	19	
0	0	0	0	0	519	496	1	0	40	19	
1	0	0	0	0	515	497	2	0	40	19	
2	0	0	0	0	512	504	1	0	40	19	
3	0	0	0	0	512	510	0	0	40	19	
4	0	0	0	0	508	515	3	0	40	19	
5	0	0	0	0	506	519	3	0	40	19	
6	0	0	0	0	506	521	1	0	40	19	
7	0	0	0	0	511	521	2	591	40	19	
8	0	0	0	0	514	520	3	1018	40	19	
9	0	0	0	0	518	515	1	1018	40	19	
10	0	0	0	0	519	515	3	1018	40	19	
11	0	0	0	0	514	515	3	1018	40	19	
12	0	0	0	0	507	515	2	1018	40	19	
13	0	0	0	0	514	512	1	1018	40	19	
14	0	0	0	0	520	508	2	206	40	19	
15	0	0	0	0	525	503	0	0	40	19	
0	0	0	0	0	525	497	2	0	40	19	
1	0	0	0	0	526	494	2	0	40	19	
2	0	0	0	0	518	497	1	0	40	19	
3	0	0	0	0	511	503	0	0	40	19	
4	0	0	0	0	505	508	1	0	40	19	
5	0	0	0	0	503	514	2	0	40	19	
6	0	0	0	0	502	518	0	0	40	19	
7	0	0	0	0	499	521	2	0	40	19	
8	0	0	0	0	505	523	3	1018	40	19	
9	0	0	0	0	511	519	1	1018	40	19	
10	0	0	0	0	515	517	3	1018	40	19	
11	0	0	0	0	513	516	2	1018	40	19	
12	0	0	0	0	515	514	1	1019	40	19	
13	0	0	0	0	515	514	1	1018	40	19	
14	0	0	0	0	520	512	2	268	40	19	
15	0	0	0	0	521	510	0	0	40	19	
0	0	0	0	0	518	502	2	0	40	19	
1	0	0	0	0	524	499	2	0	40	19	
2	0	0	0	0	529	499	1	0	40	19	
3	0	0	0	0	516	502	0	0	40	19	
4	0	0	0	0	503	507	1	0	40	19	
5	0	0	0	0	498	512	1	0	40	19	
6	0	0	0	0	498	515	0	0	40	19	
7	0	0	0	0	504	519	2	0	40	19	
8	0	0	0	0	504	517	3	766	40	19	
9	0	0	0	0	508	517	1	1018	40	19	
10	0	0	0	0	525	516	3	1018	40	19	
11	0	0	0	0	526	514	2	1018	40	19	
12	0	0	0	0	523	516	3	1019	40	19	
13	0	0	0	0	521	513	1	1018	40	19	
14	0	0	0	0	516	509	3	1018	40	19	
15	0	0	0	0	510	506	0	1018	40	19	
0	0	0	0	0	513	501	3	40	40	19	
1	0	0	0	0	507	496	2	0	40	19	
2	0	0	0	0	495	491	1	0	40	19	
3	0	0	0	0	496	493	0	0	40	19	
4	0	0	0	0	498	497	1	0	40	19	
5	0	0	0	0	498	505	2	0	40	19	
6	0	0	0	0	509	512	0	0	40	19	
7	0	0	0	0	518	518	2	0	40	19	
8	0	0	0	0	514	518	2	0	40	19	
9	0	0	0	0	516	518	1	1018	40	19	
10	0	0	0	0	523	516	3	1018	40	19	
11	0	0	0	0	523	513	3	1018	40	19	
12	0	0	0	0	513	513	2	1019	40	19	
13	0	0	0	0	508	514	1	1018	40	19	
14	0	0	0	0	513	514	2	1018	40	19	
15	0	0	0	0	513	511	1	1018	40	19	
0	0	0	0	0	516	508	3	1019	40	19	
1	0	0	0	0	523	502	2	0	40	19	
2	0	0	0	0	522	498	1	0	40	19	
3	0	0	0	0	523	496	0	0	40	19	
4	0	0	0	0	514	496	2	0	40	19	
5	0	0	0	0	512	502	2	0	40	19	
6	0	0	0	0	509	508	0	0	40	19	
7	0	0	0	0	507	514	2	0	40	19	
8	0	0	0	0	510	520	3	0	40	19	
9	0	0	0	0	503	519	1	0	40	19	
10	0	0	0	0	510	518	2	1018	40	19	
11	0	0	0	0	518	515	3	1018	40	19	
12	0	0	0	0	511	514	1	1019	40	19	
13	0	0	0	0	496	512	0	1019	40	19	
14	0	0	0	0	494	512	2	1018	40	19	
15	0	0	0	0	493	510	2	1018	40	19	
0	0	0	0	0	493	508	1	1019	40	19	
1	0	0	0	0	503	504	2	572	40	19	
2	0	0	0	0	532	500	2	0	40	19	
3	0	0	0	0	559	498	0	0	40	19	
4	0	0	0	0	560	495	1	0	40	19	
5	0	0	0	0	556	499	2	0	40	19	
6	0	0	0	0	548	505	3	0	40	19	
7	0	0	0	0	513	511	0	0	40	19	
8	0	0	0	0	476	513	1	0	40	19	
9	0	0	0	0	455	517	3	0	40	20	
10	0	0	0	0	456	517	3	1018	40	19	
11	0	0	0	0	467	515	2	1018	40	19	
12	0	0	0	0	493	514	3	1019	40	20	
13	0	0	0	0	507	510	1	1018	40	20	
14	0	0	0	0	516	513	3	1018	40	20	
15	0	0	0	0	528	514	1	1018	40	20	
0	0	0	0	0	530	511	3	1019	40	20	
1	0	0	0	0	532	508	0	1018	40	20	
2	0	0	0	0	532	505	2	1018	40	20	
3	0	0	0	0	531	500	0	0	40	20	
4	0	0	0	0	531	495	0	0	40	20	
5	0	0	0	0	529	495	2	0	40	20	
6	0	0	0	0	520	502	0	0	40	20	
7	0	0	0	0	510	507	0	0	40	20	
8	0	0	0	0	507	512	2	0	40	20	
9	0	0	0	0	509	516	3	0	40	20	
10	0	0	0	0	504	520	1	0	40	20	
11	0	0	0	0	506	522	3	1018	40	20	
12	0	0	0	0	512	518	3	1019	40	20	
13	0	0	0	0	516	517	1	1018	40	20	
14	0	0	0	0	516	518	1	1018	40	20	
15	0	0	0	0	511	518	2	1018	40	20	
0	0	0	0	0	515	516	1	1019	40	20	
1	0	0	0	0	515	511	0	1018	40	20	
2	0	0	0	0	514	509	2	1018	40	20	
3	0	0	0	0	517	504	2	81	40	20	
4	0	0	0	0	513	499	2	0	40	20	
5	0	0	0	0	519	496	0	0	40	20	
6	0	0	0	0	517	498	2	0	40	20	
7	0	0	0	0	513	507	1	0	40	20	
8	0	0	0	0	505	514	3	0	40	20	
9	0	0	0	0	491	517	3	0	40	20	
10	0	0	0	0	494	521	3	0	40	20	
11	0	0	0	0	500	521	0	0	40	20	
12	0	0	0	0	511	522	2	1018	40	20	
13	0	0	0	0	516	518	3	1019	40	20	
14	0	0	0	0	519	514	1	1018	40	20	
15	0	0	0	0	515	518	0	1018	40	20	
0	0	0	0	0	512	518	1	1018	40	20	
1	0	0	0	0	512	516	3	1018	40	20	
2	0	0	0	0	515	515	0	1018	40	20	
3	0	0	0	0	518	510	2	349	40	20	
4	0	0	0	0	526	505	2	0	40	20	
5	0	0	0	0	526	499	1	0	40	20	
6	0	0	0	0	524	497	1	0	40	20	
7	0	0	0	0	517	502	2	0	40	20	
8	0	0	0	0	510	508	2	0	40	20	
9	0	0	0	0	505	512	0	0	40	20	
10	0	0	0	0	504	517	2	0	40	20	
11	0	0	0	0	504	520	3	0	40	20	
12	0	0	0	0	511	518	3	1019	40	20	
13	0	0	0	0	509	516	2	1018	40	20	
14	0	0	0	0	513	514	3	1018	40	20	
15	0	0	0	0	518	513	1	1018	40	20	
0	0	0	0	0	513	515	3	1019	40	20	
1	0	0	0	0	510	514	3	1018	40	20	
2	0	0	0	0	510	511	3	1018	40	20	
3	0	0	0	0	515	510	0	1018	40	20	
4	0	0	0	0	515	507	3	532	40	20	
5	0	0	0	0	516	502	2	0	40	20	
6	0	0	0	0	520	496	2	0	40	20	
7	0	0	0	0	511	496	0	0	40	20	
8	0	0	0	0	506	501	3	0	40	20	
9	0	0	0	0	512	505	2	0	40	20	
10	0	0	0	0	509	511	2	0	40	20	
11	0	0	0	0	511	517	1	0	40	20	
12	0	0	0	0	508	519	2	0	40	20	
13	0	0	0	0	499	518	3	1018	40	20	
14	0	0	0	0	504	516	3	1018	40	20	
15	0	0	0	0	510	515	1	1018	40	20	
0	0	0	0	0	510	514	3	1019	40	20	
1	0	0	0	0	507	513	3	1018	40	20	
2	0	0	0	0	509	512	2	1018	40	20	
3	0	0	0	0	507	510	0	1018	40	20	
4	0	0	0	0	508	506	1	1017	40	20	
5	0	0	0	0	520	501	2	0	40	20	
6	0	0	0	0	533	498	1	0	40	20	
7	0	0	0	0	539	494	0	0	40	20	
8	0	0	0	0	532	496	3	0	40	20	
9	0	0	0	0	527	503	2	0	40	20	
10	0	0	0	0	515	509	1	0	40	20	
11	0	0	0	0	495	515	3	0	40	20	
12	0	0	0	0	494	519	1	0	40	20	
13	0	0	0	0	496	519	1	0	40	20	
14	0	0	0	0	503	518	1	1018	40	20	
15	0	0	0	0	508	515	3	1018	40	20	
0	0	0	0	0	502	513	2	1019	40	20	
1	0	0	0	0	492	515	1	1018	40	20	
2	0	0	0	0	495	516	2	1018	40	20	
3	0	0	0	0	507	513	2	1018	40	20	
4	0	0	0	0	521	508	3	1017	40	20	
5	0	0	0	0	541	506	2	0	40	20	
6	0	0	0	0	551	501	2	0	40	20	
7	0	0	0	0	551	499	0	0	40	20	
8	0	0	0	0	537	497	1	0	40	20	
9	0	0	0	0	515	499	2	0	40	20	
10	0	0	0	0	495	506	1	0	40	20	
11	0	0	0	0	475	509	2	0	40	20	
12	0	0	0	0	472	515	3	0	40	20	
13	0	0	0	0	488	519	2	0	40	20	
14	0	0	0	0	509	517	1	895	40	20	
15	0	0	0	0	526	518	3	1018	40	20	
0	0	0	0	0	530	515	3	1019	40	20	
1	0	0	0	0	540	513	0	1018	40	20	
2	0	0	0	0	538	514	3	1018	40	20	
3	0	0	0	0	512	514	2	1018	40	20	
4	0	0	0	0	503	510	3	1018	40	20	
5	0	0	0	0	504	507	0	1018	40	20	
6	0	0	0	0	504	503	2	0	40	20	
7	0	0	0	0	505	500	2	0	40	20	
8	0	0	0	0	504	497	1	0	40	20	
9	0	0	0	0	508	497	0	0	40	20	
10	0	0	0	0	509	502	2	0	40	20	
11	0	0	0	0	510	509	2	0	40	20	
12	0	0	0	0	508	515	3	0	40	20	
13	0	0	0	0	511	520	1	0	40	20	
14	0	0	0	0	513	522	3	0	40	20	
15	0	0	0	0	513	522	3	1018	40	20	
0	0	0	0	0	517	520	3	1019	40	20	
1	0	0	0	0	519	515	1	1018	40	20	
2	0	0	0	0	521	513	3	1018	40	20	
3	0	0	0	0	519	515	2	1018	40	20	
4	0	0	0	0	531	513	0	1019	40	20	
5	0	0	0	0	531	511	1	1018	40	20	
6	0	0	0	0	526	508	1	1018	40	20	
7	0	0	0	0	525	504	2	0	40	20	
8	0	0	0	0	516	499	2	0	40	20	
9	0	0	0	0	512	497	0	0	40	20	
10	0	0	0	0	503	498	2	0	40	20	
11	0	0	0	0	499	504	2	0	40	20	
12	0	0	0	0	491	507	3	0	40	20	
13	0	0	0	0	487	514	1	0	40	20	
14	0	0	0	0	484	518	2	0	40	20	
15	0	0	0	0	495	519	2	736	40	20	
0	0	0	0	0	511	517	3	1019	40	20	
1	0	0	0	0	520	515	3	1018	40	20	
2	0	0	0	0	520	512	3	1018	40	20	
3	0	0	0	0	520	513	0	1018	40	20	
4	0	0	0	0	518	513	3	1019	40	20	
5	0	0	0	0	518	511	3	1018	40	20	
6	0	0	0	0	519	510	1	1018	40	20	
7	0	0	0	0	520	507	0	150	40	20	
8	0	0	0	0	521	501	1	0	40	20	
9	0	0	0	0	528	497	2	0	40	20	
10	0	0	0	0	527	495	0	0	40	20	
11	0	0	0	0	523	499	2	0	40	20	
12	0	0	0	0	514	506	3	0	40	20	
13	0	0	0	0	506	512	1	0	40	20	
14	0	0	0	0	503	516	2	0	40	20	
15	0	0	0	0	502	519	2	0	40	20	
0	0	0	0	0	500	521	3	940	40	20	
1	0	0	0	0	506	520	1	1018	40	20	
2	0	0	0	0	507	518	3	1018	40	20	
3	0	0	0	0	510	517	1	1018	40	20	
4	0	0	0	0	514	517	2	1019	40	20	
5	0	0	0	0	519	515	2	1018	40	20	
6	0	0	0	0	523	512	2	1018	40	20	
7	0	0	0	0	526	508	0	515	40	20	
8	0	0	0	0	526	503	1	0	40	20	
9	0	0	0	0	524	499	2	0	40	20	
10	0	0	0	0	523	496	3	0	40	20	
11	0	0	0	0	512	496	1	0	40	20	
12	0	0	0	0	511	502	3	0	40	20	
13	0	0	0	0	506	506	2	0	40	20	
14	0	0	0	0	501	514	3	0	40	20	
15	0	0	0	0	500	517	1	0	40	20	
0	0	0	0	0	499	520	3	306	40	20	
1	0	0	0	0	497	521	1	1019	40	20	
2	0	0	0	0	506	519	3	1018	40	20	
3	0	0	0	0	506	517	2	1018	40	20	
4	0	0	0	0	510	514	3	1018	40	20	
5	0	0	0	0	511	514	0	1018	40	20	
6	0	0	0	0	512	514	2	1018	40	20	
7	0	0	0	0	504	511	2	1018	40	20	
8	0	0	0	0	501	509	2	1019	40	20	
9	0	0	0	0	503	502	0	0	40	20	
10	0	0	0	0	509	500	2	0	40	20	
11	0	0	0	0	521	499	2	0	40	20	
12	0	0	0	0	525	499	2	0	40	20	
13	0	0	0	0	523	504	0	0	40	20	
14	0	0	0	0	522	510	3	0	40	20	
15	0	0	0	0	521	515	3	0	40	20	
0	0	0	0	0	519	519	2	0	40	20	
1	0	0	0	0	519	519	1	965	40	20	
2	0	0	0	0	512	518	3	1018	40	20	
3	0	0	0	0	515	517	2	1018	40	20	
4	0	0	0	0	518	515	3	1019	40	20	
5	0	0	0	0	517	513	2	1019	40	20	
6	0	0	0	0	527	512	3	1018	40	20	
7	0	0	0	0	535	511	0	1018	40	20	
8	0	0	0	0	537	510	3	1019	40	20	
9	0	0	0	0	520	506	3	1018	40	20	
10	0	0	0	0	524	503	1	311	40	20	
11	0	0	0	0	509	499	0	0	40	20	
12	0	0	0	0	497	497	3	0	40	20	
13	0	0	0	0	493	501	2	0	40	20	
14	0	0	0	0	489	505	1	0	40	20	
15	0	0	0	0	481	511	2	0	40	20	
0	0	0	0	0	482	514	3	0	40	20	
1	0	0	0	0	495	518	1	0	40	20	
2	0	0	0	0	513	519	1	1018	40	20	
3	0	0	0	0	517	517	3	1018	40	20	
4	0	0	0	0	522	514	3	1019	40	20	
5	0	0	0	0	526	512	0	1018	40	20	
6	0	0	0	0	520	513	2	1018	40	20	
7	0	0	0	0	513	515	2	1018	40	20	
8	0	0	0	0	512	511	3	1019	40	20	
9	0	0	0	0	516	507	2	1018	40	20	
10	0	0	0	0	518	502	2	173	40	20	
11	0	0	0	0	519	497	0	0	40	20	
12	0	0	0	0	518	495	2	0	40	20	
13	0	0	0	0	520	494	3	0	40	20	
14	0	0	0	0	513	500	0	0	40	20	
15	0	0	0	0	511	508	0	0	40	20	
0	0	0	0	0	512	517	4	0	40	20	
1	0	0	0	0	513	518	3	0	40	20	
2	0	0	0	0	512	519	1	0	40	20	
3	0	0	0	0	507	518	1	1018	40	20	
4	0	0	0	0	511	515	2	1018	40	20	
5	0	0	0	0	515	514	3	1018	40	20	
6	0	0	0	0	516	514	1	1018	40	20	
7	0	0	0	0	515	516	1	1018	40	20	
8	0	0	0	0	513	514	1	1019	40	20	
9	0	0	0	0	503	511	3	1018	40	20	
10	0	0	0	0	497	508	1	1018	40	20	
11	0	0	0	0	491	503	0	459	40	20	
12	0	0	0	0	491	499	3	0	40	20	
13	0	0	0	0	499	497	2	0	40	20	
14	0	0	0	0	508	500	0	0	40	20	
15	0	0	0	0	508	505	2	0	40	20	
0	0	0	0	0	519	510	1	0	40	20	
1	0	0	0	0	531	516	3	0	40	20	
2	0	0	0	0	537	519	1	0	40	20	
3	0	0	0	0	536	520	3	704	40	20	
4	0	0	0	0	543	518	3	1019	40	20	
5	0	0	0	0	545	516	2	1018	40	20	
6	0	0	0	0	540	512	1	1018	40	20	
7	0	0	0	0	521	514	2	1018	40	20	
8	0	0	0	0	512	515	1	1019	40	20	
9	0	0	0	0	510	515	0	1018	40	20	
10	0	0	0	0	509	512	3	1018	40	20	
11	0	0	0	0	501	507	2	1017	40	20	
12	0	0	0	0	497	500	0	0	40	20	
13	0	0	0	0	496	495	2	0	40	20	
14	0	0	0	0	509	492	2	0	40	20	
15	0	0	0	0	515	495	0	0	40	20	
0	0	0	0	0	513	504	3	0	40	20	
1	0	0	0	0	508	511	2	0	40	20	
2	0	0	0	0	492	515	1	0	40	20	
3	0	0	0	0	493	519	0	0	40	20	
4	0	0	0	0	494	516	3	1018	40	20	
5	0	0	0	0	499	516	3	1018	40	20	
6	0	0	0	0	500	513	1	1018	40	20	
7	0	0	0	0	509	511	2	1018	40	20	
8	0	0	0	0	512	512	3	1019	40	20	
9	0	0	0	0	514	512	1	1018	40	20	
10	0	0	0	0	520	509	2	1018	40	20	
11	0	0	0	0	531	506	2	1018	40	20	
12	0	0	0	0	535	503	2	1018	40	20	
13	0	0	0	0	531	498	0	0	40	20	
14	0	0	0	0	535	496	2	0	40	20	
15	0	0	0	0	529	496	1	0	40	20	
