# OpenSignals Text File Format. Version 1
# {"0C:43:14:1C:2A:02": {"position": 0, "device": "bitalino_rev", "device name": "0C:43:14:1C:2A:02", "device connection": "BTH0C:43:14:1C:2A:02", "sampling rate": 1000, "resolution": [4, 1, 1, 1, 1, 10, 10, 10, 10, 6, 6], "firmware version": 1282, "comments": "", "keywords": "", "mode": 0, "sync interval": 2, "date": "2026-4-17", "time": "12:27:24.531", "channels": [1, 2, 3, 4, 5, 6], "sensor": ["RAW", "RAW", "RAW", "RAW", "RAW", "RAW"], "label": ["A1", "A2", "A3", "A4", "A5", "A6"], "column": ["nSeq", "I1", "I2", "O1", "O2", "A1", "A2", "A3", "A4", "A5", "A6"], "special": [{}, {}, {}, {}, {}, {}], "digital IO": [0, 0, 1, 1]}}
# EndOfHeader
0	0	0	0	0	541	508	0	137	40	22	
1	0	0	0	0	539	507	2	53	40	22	
2	0	0	0	0	531	506	0	31	40	22	
3	0	0	0	0	525	505	2	164	40	22	
4	0	0	0	0	531	507	3	487	40	22	
5	0	0	0	0	535	505	3	938	40	22	
6	0	0	0	0	529	508	1	1018	40	22	
7	0	0	0	0	530	510	2	1018	40	22	
8	0	0	0	0	518	509	1	1018	40	22	
9	0	0	0	0	500	508	2	1018	40	22	
10	0	0	0	0	474	510	3	1018	40	22	
11	0	0	0	0	469	511	1	1018	40	22	
12	0	0	0	0	475	509	1	1018	40	22	
13	0	0	0	0	472	509	2	1018	40	22	
14	0	0	0	0	471	508	2	1018	40	22	
15	0	0	0	0	472	510	1	916	40	22	
0	0	0	0	0	490	508	2	650	40	22	
1	0	0	0	0	515	507	1	409	40	22	
2	0	0	0	0	538	506	3	198	40	22	
3	0	0	0	0	559	508	0	159	40	22	
4	0	0	0	0	562	510	3	327	40	22	
5	0	0	0	0	555	511	0	772	40	22	
6	0	0	0	0	548	513	3	1018	40	22	
7	0	0	0	0	523	513	2	1018	40	22	
8	0	0	0	0	499	513	1	1019	40	22	
9	0	0	0	0	488	512	1	1018	40	22	
10	0	0	0	0	482	514	1	1018	40	22	
11	0	0	0	0	480	512	2	1018	40	22	
12	0	0	0	0	480	511	2	1019	40	22	
13	0	0	0	0	486	510	3	1018	40	22	
14	0	0	0	0	490	511	1	1018	40	22	
15	0	0	0	0	484	511	2	1017	40	22	
0	0	0	0	0	491	510	3	1018	40	22	
1	0	0	0	0	502	509	2	585	40	22	
2	0	0	0	0	504	508	0	323	40	22	
3	0	0	0	0	512	508	2	150	40	22	
4	0	0	0	0	533	508	3	98	40	22	
5	0	0	0	0	540	510	3	259	40	22	
6	0	0	0	0	552	511	1	606	40	22	
7	0	0	0	0	573	511	3	1007	40	22	
8	0	0	0	0	588	511	3	1019	40	22	
9	0	0	0	0	585	510	3	1018	40	22	
10	0	0	0	0	544	511	3	1018	40	22	
11	0	0	0	0	512	512	1	1018	40	22	
12	0	0	0	0	503	510	3	1019	40	22	
13	0	0	0	0	495	509	2	1018	40	22	
14	0	0	0	0	491	510	3	1018	40	22	
15	0	0	0	0	493	509	1	1017	40	22	
0	0	0	0	0	492	508	2	735	40	22	
1	0	0	0	0	503	506	1	491	40	22	
2	0	0	0	0	514	506	2	262	40	22	
3	0	0	0	0	503	509	0	86	40	22	
4	0	0	0	0	491	508	3	26	40	22	
5	0	0	0	0	491	507	0	108	40	22	
6	0	0	0	0	495	509	3	331	40	22	
7	0	0	0	0	484	511	1	685	40	22	
8	0	0	0	0	473	510	3	1018	40	22	
9	0	0	0	0	476	509	1	1018	40	22	
10	0	0	0	0	477	510	2	1018	40	22	
11	0	0	0	0	512	511	3	1018	40	22	
12	0	0	0	0	544	512	3	1019	40	22	
13	0	0	0	0	569	512	1	1018	40	22	
14	0	0	0	0	584	513	1	1018	40	22	
15	0	0	0	0	572	512	2	1018	40	22	
0	0	0	0	0	544	513	2	1019	40	22	
1	0	0	0	0	514	511	3	726	40	22	
2	0	0	0	0	485	511	1	467	40	22	
3	0	0	0	0	472	511	3	217	40	22	
4	0	0	0	0	460	512	2	0	40	22	
5	0	0	0	0	483	510	2	0	40	22	
6	0	0	0	0	517	512	1	180	40	22	
7	0	0	0	0	543	513	2	451	40	22	
8	0	0	0	0	546	511	3	849	40	22	
9	0	0	0	0	550	513	3	1018	40	22	
10	0	0	0	0	531	513	0	1018	40	22	
11	0	0	0	0	520	512	2	1018	40	22	
12	0	0	0	0	507	513	3	1019	40	22	
13	0	0	0	0	485	513	3	1018	40	22	
14	0	0	0	0	470	512	1	1018	40	22	
15	0	0	0	0	492	511	3	1018	40	22	
0	0	0	0	0	507	511	4	1019	40	22	
1	0	0	0	0	511	508	3	1018	40	22	
2	0	0	0	0	515	508	1	673	40	22	
3	0	0	0	0	524	507	2	359	40	22	
4	0	0	0	0	533	505	1	50	40	22	
5	0	0	0	0	535	507	1	0	40	22	
6	0	0	0	0	527	508	2	0	40	22	
7	0	0	0	0	517	510	0	205	40	22	
8	0	0	0	0	497	513	1	584	40	22	
9	0	0	0	0	491	512	0	986	40	22	
10	0	0	0	0	487	514	3	1018	40	22	
11	0	0	0	0	487	517	1	1018	40	22	
12	0	0	0	0	496	515	2	1019	40	22	
13	0	0	0	0	500	515	2	1018	40	22	
14	0	0	0	0	518	515	1	1018	40	22	
15	0	0	0	0	526	515	2	1018	40	22	
0	0	0	0	0	528	513	3	1018	40	22	
1	0	0	0	0	526	512	2	1018	40	22	
2	0	0	0	0	524	510	2	670	40	22	
3	0	0	0	0	522	509	0	360	40	22	
4	0	0	0	0	519	510	2	63	40	22	
5	0	0	0	0	509	507	0	0	40	22	
6	0	0	0	0	503	509	3	0	40	22	
7	0	0	0	0	504	510	1	0	40	22	
8	0	0	0	0	505	510	2	0	40	22	
9	0	0	0	0	505	510	1	615	40	22	
10	0	0	0	0	512	512	2	1018	40	22	
11	0	0	0	0	528	513	3	1018	40	22	
12	0	0	0	0	528	510	2	1019	40	22	
13	0	0	0	0	528	510	3	1018	40	22	
14	0	0	0	0	522	511	1	1018	40	22	
15	0	0	0	0	515	512	2	1017	40	22	
0	0	0	0	0	513	510	3	867	40	22	
1	0	0	0	0	512	509	2	752	40	22	
2	0	0	0	0	512	508	0	547	40	22	
3	0	0	0	0	519	506	2	312	40	22	
4	0	0	0	0	536	507	3	70	40	22	
5	0	0	0	0	540	506	3	0	40	22	
6	0	0	0	0	527	506	1	0	40	22	
7	0	0	0	0	516	509	2	0	40	22	
8	0	0	0	0	513	510	3	0	40	22	
9	0	0	0	0	503	511	1	0	40	22	
10	0	0	0	0	495	511	3	425	40	22	
11	0	0	0	0	488	510	1	720	40	22	
12	0	0	0	0	491	509	4	908	40	22	
13	0	0	0	0	501	509	1	993	40	22	
14	0	0	0	0	503	508	3	934	40	22	
15	0	0	0	0	489	510	0	836	40	22	
0	0	0	0	0	474	511	1	757	40	22	
1	0	0	0	0	475	511	0	662	40	22	
2	0	0	0	0	484	510	3	562	40	22	
3	0	0	0	0	505	510	0	416	40	22	
4	0	0	0	0	522	509	3	189	40	22	
5	0	0	0	0	536	506	0	0	40	22	
6	0	0	0	0	542	504	2	0	40	22	
7	0	0	0	0	538	507	0	0	40	22	
8	0	0	0	0	535	510	4	0	40	22	
9	0	0	0	0	534	509	0	0	40	22	
10	0	0	0	0	521	512	3	525	40	22	
11	0	0	0	0	507	515	0	1018	40	22	
12	0	0	0	0	501	516	4	1019	40	22	
13	0	0	0	0	498	514	1	1018	40	22	
14	0	0	0	0	499	512	3	1018	40	22	
15	0	0	0	0	509	510	0	1018	40	22	
0	0	0	0	0	516	509	3	1019	40	22	
1	0	0	0	0	529	510	1	1018	40	22	
2	0	0	0	0	532	509	3	1018	40	22	
3	0	0	0	0	540	508	0	1017	40	22	
4	0	0	0	0	532	506	2	655	40	22	
5	0	0	0	0	524	505	0	365	40	22	
6	0	0	0	0	516	506	2	77	40	22	
7	0	0	0	0	519	507	0	0	40	22	
8	0	0	0	0	553	508	2	0	40	22	
9	0	0	0	0	554	508	1	0	40	22	
10	0	0	0	0	522	510	2	0	40	22	
11	0	0	0	0	504	509	0	311	40	22	
12	0	0	0	0	487	511	3	619	40	22	
13	0	0	0	0	469	510	1	989	40	22	
14	0	0	0	0	462	509	2	1018	40	22	
15	0	0	0	0	476	510	2	1018	40	22	
0	0	0	0	0	490	512	2	1019	40	22	
1	0	0	0	0	503	509	3	1018	40	22	
2	0	0	0	0	509	511	1	925	40	22	
3	0	0	0	0	509	509	2	760	40	22	
4	0	0	0	0	499	510	3	535	40	22	
5	0	0	0	0	487	509	2	290	40	22	
6	0	0	0	0	490	510	1	39	40	22	
7	0	0	0	0	504	509	2	0	40	22	
8	0	0	0	0	507	509	2	0	40	22	
9	0	0	0	0	515	509	2	0	40	22	
10	0	0	0	0	528	512	1	0	40	22	
11	0	0	0	0	549	512	2	209	40	22	
12	0	0	0	0	556	511	1	622	40	22	
13	0	0	0	0	548	511	3	980	40	22	
14	0	0	0	0	540	511	1	1018	40	22	
15	0	0	0	0	527	512	2	1018	40	22	
0	0	0	0	0	527	512	3	1019	40	22	
1	0	0	0	0	531	512	2	923	40	22	
2	0	0	0	0	525	511	1	899	40	22	
3	0	0	0	0	515	511	2	843	40	22	
4	0	0	0	0	504	509	3	685	40	22	
5	0	0	0	0	495	507	2	473	40	22	
6	0	0	0	0	492	507	1	217	40	22	
7	0	0	0	0	486	506	3	0	40	22	
8	0	0	0	0	487	505	0	0	40	22	
9	0	0	0	0	493	506	2	0	40	22	
10	0	0	0	0	487	508	0	0	40	22	
11	0	0	0	0	482	510	2	0	40	22	
12	0	0	0	0	479	511	3	239	40	22	
13	0	0	0	0	472	511	2	698	40	22	
14	0	0	0	0	486	511	1	1018	40	22	
15	0	0	0	0	521	512	2	1018	40	22	
0	0	0	0	0	546	510	3	1019	40	22	
1	0	0	0	0	563	511	3	1018	40	22	
2	0	0	0	0	568	513	0	1018	40	22	
3	0	0	0	0	567	512	2	865	40	22	
4	0	0	0	0	568	512	3	684	40	22	
5	0	0	0	0	528	508	2	489	40	22	
6	0	0	0	0	505	508	1	255	40	22	
7	0	0	0	0	496	507	2	0	40	22	
8	0	0	0	0	493	506	2	0	40	22	
9	0	0	0	0	494	506	2	0	40	22	
10	0	0	0	0	497	507	0	0	40	22	
11	0	0	0	0	488	509	2	0	40	22	
12	0	0	0	0	489	508	3	0	40	22	
13	0	0	0	0	488	509	2	615	40	22	
14	0	0	0	0	492	511	1	1018	40	22	
15	0	0	0	0	498	512	3	1018	40	22	
0	0	0	0	0	502	510	1	1019	40	22	
1	0	0	0	0	521	508	2	1018	40	22	
2	0	0	0	0	539	509	1	1018	40	22	
3	0	0	0	0	554	511	3	1017	40	22	
4	0	0	0	0	562	511	3	1019	40	22	
5	0	0	0	0	581	511	3	817	40	22	
6	0	0	0	0	582	511	0	598	40	22	
7	0	0	0	0	558	510	2	327	40	22	
8	0	0	0	0	531	508	2	44	40	22	
9	0	0	0	0	496	505	2	0	40	22	
10	0	0	0	0	469	505	0	0	40	22	
11	0	0	0	0	460	508	2	0	40	22	
12	0	0	0	0	461	508	1	0	40	22	
13	0	0	0	0	464	512	2	0	40	22	
14	0	0	0	0	471	512	1	276	40	22	
15	0	0	0	0	485	510	1	645	40	22	
0	0	0	0	0	502	511	3	903	40	22	
1	0	0	0	0	518	511	0	1018	40	22	
2	0	0	0	0	521	512	3	960	40	22	
3	0	0	0	0	524	512	0	821	40	22	
4	0	0	0	0	526	511	3	703	40	22	
5	0	0	0	0	527	512	1	578	40	22	
6	0	0	0	0	519	512	2	402	40	22	
7	0	0	0	0	514	511	2	196	40	22	
8	0	0	0	0	508	510	3	0	40	22	
9	0	0	0	0	515	510	2	0	40	22	
10	0	0	0	0	525	509	1	0	40	22	
11	0	0	0	0	520	511	2	0	40	22	
12	0	0	0	0	518	513	2	0	40	22	
13	0	0	0	0	518	513	1	0	40	22	
14	0	0	0	0	504	514	2	334	40	22	
15	0	0	0	0	497	514	1	851	40	22	
0	0	0	0	0	498	514	2	1017	40	22	
1	0	0	0	0	510	514	1	1018	40	22	
2	0	0	0	0	531	512	2	1018	40	22	
3	0	0	0	0	531	513	1	1018	40	22	
4	0	0	0	0	522	512	1	1017	40	22	
5	0	0	0	0	523	510	1	1018	40	22	
6	0	0	0	0	512	511	3	891	40	22	
7	0	0	0	0	493	510	0	716	40	22	
8	0	0	0	0	488	510	2	467	40	22	
9	0	0	0	0	486	510	1	184	40	22	
10	0	0	0	0	500	508	2	0	40	22	
11	0	0	0	0	499	509	1	0	40	22	
12	0	0	0	0	496	510	3	0	40	22	
13	0	0	0	0	495	510	2	0	40	22	
14	0	0	0	0	503	510	2	0	40	22	
15	0	0	0	0	516	512	1	579	40	22	
0	0	0	0	0	534	514	4	975	40	22	
1	0	0	0	0	545	515	2	1018	40	22	
2	0	0	0	0	535	516	3	1018	40	22	
3	0	0	0	0	539	516	1	1018	40	22	
4	0	0	0	0	526	514	3	1019	40	22	
5	0	0	0	0	522	512	2	1018	40	22	
6	0	0	0	0	527	512	3	1018	40	22	
7	0	0	0	0	522	512	1	1018	40	22	
8	0	0	0	0	523	511	1	806	40	22	
9	0	0	0	0	516	510	1	471	40	22	
10	0	0	0	0	512	510	3	107	40	22	
11	0	0	0	0	505	509	1	0	40	22	
12	0	0	0	0	499	507	3	0	40	22	
13	0	0	0	0	500	507	2	0	40	22	
14	0	0	0	0	501	509	2	0	40	22	
15	0	0	0	0	514	510	1	0	40	22	
0	0	0	0	0	520	510	1	172	40	22	
1	0	0	0	0	526	511	3	602	40	22	
2	0	0	0	0	526	513	1	984	40	22	
3	0	0	0	0	524	513	3	1018	40	22	
4	0	0	0	0	525	512	4	1019	40	22	
5	0	0	0	0	521	510	3	934	40	22	
6	0	0	0	0	508	511	1	905	40	22	
7	0	0	0	0	502	510	2	816	40	22	
8	0	0	0	0	496	509	3	632	40	22	
9	0	0	0	0	499	509	2	394	40	22	
10	0	0	0	0	504	509	0	101	40	22	
11	0	0	0	0	506	508	2	0	40	22	
12	0	0	0	0	501	507	3	0	40	22	
13	0	0	0	0	483	506	2	0	40	22	
14	0	0	0	0	484	507	1	0	40	22	
15	0	0	0	0	473	507	2	0	40	22	
0	0	0	0	0	473	509	2	0	40	22	
1	0	0	0	0	494	510	2	633	40	22	
2	0	0	0	0	510	511	1	1018	40	22	
3	0	0	0	0	514	510	2	1018	40	22	
4	0	0	0	0	526	508	3	1018	40	22	
5	0	0	0	0	536	511	3	1018	40	22	
6	0	0	0	0	543	512	1	1018	40	22	
7	0	0	0	0	543	511	2	966	40	22	
8	0	0	0	0	537	512	3	802	40	22	
9	0	0	0	0	526	510	3	611	40	22	
10	0	0	0	0	518	510	1	350	40	22	
11	0	0	0	0	511	510	2	55	40	22	
12	0	0	0	0	508	509	1	0	40	22	
13	0	0	0	0	511	509	2	0	40	22	
14	0	0	0	0	529	510	1	0	40	22	
15	0	0	0	0	534	510	2	0	40	22	
0	0	0	0	0	542	511	1	0	40	22	
1	0	0	0	0	551	511	3	437	40	22	
2	0	0	0	0	547	512	2	912	40	22	
3	0	0	0	0	520	513	3	1018	40	22	
4	0	0	0	0	505	513	2	1019	40	22	
5	0	0	0	0	497	511	1	1018	40	22	
6	0	0	0	0	483	511	2	1018	40	22	
7	0	0	0	0	483	511	1	822	40	22	
8	0	0	0	0	484	509	1	689	40	22	
9	0	0	0	0	488	508	1	567	40	22	
10	0	0	0	0	490	507	2	401	40	22	
11	0	0	0	0	492	505	0	171	40	22	
12	0	0	0	0	495	507	3	0	40	22	
13	0	0	0	0	494	506	0	0	40	22	
14	0	0	0	0	504	508	3	0	40	22	
15	0	0	0	0	520	508	0	0	40	22	
0	0	0	0	0	538	510	3	0	40	22	
1	0	0	0	0	556	509	0	0	40	22	
2	0	0	0	0	564	512	3	345	40	22	
3	0	0	0	0	550	512	1	789	40	22	
4	0	0	0	0	530	513	2	1017	40	22	
5	0	0	0	0	510	512	1	1018	40	22	
6	0	0	0	0	483	513	3	1018	40	22	
7	0	0	0	0	468	512	1	1017	40	22	
8	0	0	0	0	469	510	3	968	40	22	
9	0	0	0	0	486	510	0	880	40	22	
10	0	0	0	0	504	509	1	705	40	22	
11	0	0	0	0	516	508	2	454	40	22	
12	0	0	0	0	525	506	2	157	40	22	
13	0	0	0	0	510	505	1	0	40	22	
14	0	0	0	0	493	506	2	0	40	22	
15	0	0	0	0	481	508	0	0	40	22	
0	0	0	0	0	487	508	3	0	40	22	
1	0	0	0	0	517	508	1	0	40	22	
2	0	0	0	0	522	511	3	204	40	22	
3	0	0	0	0	536	512	0	788	40	22	
4	0	0	0	0	556	511	2	1019	40	22	
5	0	0	0	0	569	511	1	1018	40	22	
6	0	0	0	0	567	510	3	1018	40	22	
7	0	0	0	0	568	511	0	1018	40	22	
8	0	0	0	0	542	513	3	1019	40	22	
9	0	0	0	0	524	512	1	1018	40	22	
10	0	0	0	0	516	511	2	881	40	22	
11	0	0	0	0	508	509	1	609	40	22	
12	0	0	0	0	480	509	3	287	40	22	
13	0	0	0	0	467	509	2	0	40	22	
14	0	0	0	0	471	508	1	0	40	22	
15	0	0	0	0	480	512	2	0	40	22	
0	0	0	0	0	484	511	2	0	40	22	
1	0	0	0	0	489	512	3	0	40	22	
2	0	0	0	0	496	513	0	0	40	22	
3	0	0	0	0	501	514	2	345	40	22	
4	0	0	0	0	506	513	2	719	40	22	
5	0	0	0	0	512	514	3	993	40	22	
6	0	0	0	0	511	514	1	1018	40	22	
7	0	0	0	0	515	514	2	1018	40	22	
8	0	0	0	0	521	514	3	1019	40	22	
9	0	0	0	0	526	513	3	925	40	22	
10	0	0	0	0	531	512	0	858	40	22	
11	0	0	0	0	536	511	3	730	40	22	
12	0	0	0	0	537	510	1	551	40	22	
13	0	0	0	0	526	508	2	306	40	22	
14	0	0	0	0	507	510	0	15	40	22	
15	0	0	0	0	500	509	2	0	40	22	
0	0	0	0	0	488	508	1	0	40	22	
1	0	0	0	0	496	508	2	0	40	22	
2	0	0	0	0	511	511	0	0	40	22	
3	0	0	0	0	531	512	2	0	40	22	
4	0	0	0	0	553	510	3	0	40	22	
5	0	0	0	0	556	510	3	414	40	22	
6	0	0	0	0	550	511	0	599	40	22	
7	0	0	0	0	530	512	2	605	40	22	
8	0	0	0	0	505	512	3	502	40	22	
9	0	0	0	0	493	512	2	445	40	22	
10	0	0	0	0	487	510	0	418	40	22	
11	0	0	0	0	484	512	2	339	40	22	
12	0	0	0	0	484	513	3	198	40	22	
13	0	0	0	0	492	512	2	0	40	22	
14	0	0	0	0	506	510	0	0	40	22	
15	0	0	0	0	509	510	2	0	40	22	
0	0	0	0	0	513	510	3	0	40	22	
1	0	0	0	0	515	510	2	0	40	22	
2	0	0	0	0	513	512	1	0	40	22	
3	0	0	0	0	510	512	2	0	40	22	
4	0	0	0	0	512	513	3	0	40	22	
5	0	0	0	0	509	512	2	335	40	22	
6	0	0	0	0	514	511	0	647	40	22	
7	0	0	0	0	511	512	2	764	40	22	
8	0	0	0	0	516	512	2	702	40	22	
9	0	0	0	0	516	512	2	582	40	22	
10	0	0	0	0	515	511	0	492	40	22	
11	0	0	0	0	513	511	2	402	40	22	
12	0	0	0	0	513	510	2	275	40	22	
13	0	0	0	0	507	506	2	105	40	22	
14	0	0	0	0	510	506	1	0	40	22	
15	0	0	0	0	520	505	1	0	40	22	
0	0	0	0	0	528	503	1	0	40	22	
1	0	0	0	0	524	504	0	0	40	22	
2	0	0	0	0	524	504	2	0	40	22	
3	0	0	0	0	530	505	0	0	40	22	
4	0	0	0	0	535	507	2	0	40	22	
5	0	0	0	0	533	508	1	453	40	22	
6	0	0	0	0	523	508	3	919	40	22	
7	0	0	0	0	503	509	1	1018	40	22	
8	0	0	0	0	488	509	1	1017	40	22	
9	0	0	0	0	493	510	2	1018	40	22	
10	0	0	0	0	494	511	1	912	40	22	
11	0	0	0	0	510	513	2	786	40	22	
12	0	0	0	0	526	512	1	665	40	22	
13	0	0	0	0	528	512	3	548	40	22	
14	0	0	0	0	524	510	0	382	40	22	
15	0	0	0	0	510	510	2	175	40	22	
0	0	0	0	0	492	508	1	0	40	22	
1	0	0	0	0	480	506	2	0	40	22	
2	0	0	0	0	473	509	1	0	40	22	
3	0	0	0	0	469	510	2	0	40	22	
4	0	0	0	0	472	508	1	0	40	22	
5	0	0	0	0	484	510	3	0	40	22	
6	0	0	0	0	504	509	1	809	40	22	
7	0	0	0	0	519	510	3	1018	40	22	
8	0	0	0	0	528	510	2	1019	40	22	
9	0	0	0	0	534	508	1	1018	40	22	
10	0	0	0	0	536	511	2	1018	40	22	
11	0	0	0	0	539	512	1	1018	40	22	
12	0	0	0	0	535	511	3	1019	40	22	
13	0	0	0	0	536	511	0	1018	40	22	
14	0	0	0	0	543	509	3	1018	40	22	
15	0	0	0	0	543	509	0	683	40	22	
0	0	0	0	0	525	507	3	352	40	22	
1	0	0	0	0	510	506	1	14	40	22	
2	0	0	0	0	502	507	2	0	40	22	
3	0	0	0	0	492	508	0	0	40	22	
4	0	0	0	0	494	510	4	0	40	22	
5	0	0	0	0	502	509	1	0	40	22	
6	0	0	0	0	506	510	3	418	40	22	
7	0	0	0	0	515	512	1	980	40	22	
8	0	0	0	0	519	512	3	1019	40	22	
9	0	0	0	0	527	513	3	1018	40	22	
10	0	0	0	0	516	512	0	1018	40	22	
11	0	0	0	0	507	512	3	1018	40	22	
12	0	0	0	0	495	511	2	1019	40	22	
13	0	0	0	0	490	510	2	1018	40	22	
14	0	0	0	0	495	509	1	1016	40	22	
15	0	0	0	0	512	511	2	686	40	22	
0	0	0	0	0	524	509	2	393	40	22	
1	0	0	0	0	522	507	2	39	40	22	
2	0	0	0	0	517	506	0	0	40	22	
3	0	0	0	0	520	508	2	0	40	22	
4	0	0	0	0	531	506	3	0	40	22	
5	0	0	0	0	525	509	3	0	40	22	
6	0	0	0	0	518	512	1	0	40	22	
7	0	0	0	0	520	512	2	163	40	22	
8	0	0	0	0	531	512	3	405	40	22	
9	0	0	0	0	534	510	3	617	40	22	
10	0	0	0	0	526	509	1	686	40	22	
11	0	0	0	0	508	509	2	600	40	22	
12	0	0	0	0	490	509	3	507	40	22	
13	0	0	0	0	479	510	1	481	40	22	
14	0	0	0	0	470	512	1	405	40	22	
15	0	0	0	0	479	513	2	253	40	22	
0	0	0	0	0	495	511	3	63	40	22	
1	0	0	0	0	504	511	1	0	40	22	
2	0	0	0	0	514	510	2	0	40	22	
3	0	0	0	0	528	511	2	0	40	22	
4	0	0	0	0	528	511	2	0	40	22	
5	0	0	0	0	520	510	1	0	40	22	
6	0	0	0	0	513	511	2	0	40	22	
7	0	0	0	0	507	513	0	0	40	22	
8	0	0	0	0	498	515	2	0	40	22	
9	0	0	0	0	498	516	0	620	40	22	
10	0	0	0	0	508	517	3	899	40	22	
11	0	0	0	0	518	516	0	910	40	22	
12	0	0	0	0	527	513	3	770	40	22	
13	0	0	0	0	534	512	1	693	40	22	
14	0	0	0	0	536	513	3	724	40	22	
15	0	0	0	0	538	512	0	688	40	22	
0	0	0	0	0	535	509	2	574	40	22	
1	0	0	0	0	536	508	1	398	40	22	
2	0	0	0	0	530	506	3	138	40	22	
3	0	0	0	0	524	505	0	0	40	22	
4	0	0	0	0	512	506	3	0	40	22	
5	0	0	0	0	492	506	1	0	40	22	
6	0	0	0	0	469	509	2	0	40	22	
7	0	0	0	0	455	511	0	0	40	22	
8	0	0	0	0	467	512	3	275	40	22	
9	0	0	0	0	473	511	1	790	40	22	
10	0	0	0	0	488	511	3	1018	40	22	
11	0	0	0	0	519	512	1	1018	40	22	
12	0	0	0	0	544	511	3	1019	40	22	
13	0	0	0	0	548	509	2	1018	40	22	
14	0	0	0	0	558	508	2	1018	40	22	
15	0	0	0	0	558	507	1	1018	40	22	
0	0	0	0	0	539	507	3	1018	40	22	
1	0	0	0	0	529	507	2	757	40	22	
2	0	0	0	0	515	509	3	492	40	22	
3	0	0	0	0	517	510	1	202	40	22	
4	0	0	0	0	533	507	1	0	40	22	
5	0	0	0	0	539	509	1	0	40	22	
6	0	0	0	0	527	511	3	0	40	22	
7	0	0	0	0	519	511	1	0	40	22	
8	0	0	0	0	505	509	1	0	40	22	
9	0	0	0	0	495	510	1	613	40	22	
10	0	0	0	0	478	513	3	1018	40	22	
11	0	0	0	0	447	513	1	1018	40	22	
12	0	0	0	0	435	513	4	1019	40	22	
13	0	0	0	0	455	511	1	1018	40	22	
14	0	0	0	0	491	513	3	1018	40	22	
15	0	0	0	0	535	515	1	1018	40	22	
0	0	0	0	0	559	513	2	1019	40	22	
1	0	0	0	0	566	512	2	1018	40	22	
2	0	0	0	0	567	512	2	629	40	22	
3	0	0	0	0	572	512	1	331	40	22	
4	0	0	0	0	549	511	3	40	40	22	
5	0	0	0	0	493	510	2	0	40	22	
6	0	0	0	0	468	510	1	0	40	22	
7	0	0	0	0	474	510	2	0	40	22	
8	0	0	0	0	500	510	1	0	40	22	
9	0	0	0	0	524	512	2	0	40	22	
10	0	0	0	0	529	513	0	755	40	22	
11	0	0	0	0	531	513	3	1018	40	22	
12	0	0	0	0	530	511	3	1019	40	22	
13	0	0	0	0	505	509	2	1018	40	22	
14	0	0	0	0	484	511	1	1018	40	22	
15	0	0	0	0	475	512	2	1018	40	22	
0	0	0	0	0	476	512	2	1019	40	22	
1	0	0	0	0	473	509	2	1018	40	22	
2	0	0	0	0	479	509	1	857	40	22	
3	0	0	0	0	495	510	2	551	40	22	
4	0	0	0	0	511	507	1	199	40	22	
5	0	0	0	0	530	508	1	0	40	22	
6	0	0	0	0	542	509	1	0	40	22	
7	0	0	0	0	541	509	2	0	40	22	
8	0	0	0	0	536	510	3	0	40	22	
9	0	0	0	0	522	511	3	0	40	22	
10	0	0	0	0	515	512	1	0	40	22	
11	0	0	0	0	507	514	2	438	40	22	
12	0	0	0	0	502	513	3	773	40	22	
13	0	0	0	0	500	512	3	912	40	22	
14	0	0	0	0	504	511	1	868	40	22	
15	0	0	0	0	508	512	2	789	40	22	
0	0	0	0	0	517	511	2	729	40	22	
1	0	0	0	0	527	511	2	662	40	22	
2	0	0	0	0	522	512	0	548	40	22	
3	0	0	0	0	533	513	2	364	40	22	
4	0	0	0	0	535	510	1	75	40	22	
5	0	0	0	0	518	508	2	0	40	22	
6	0	0	0	0	509	508	1	0	40	22	
7	0	0	0	0	505	509	2	0	40	22	
8	0	0	0	0	505	509	3	0	40	22	
9	0	0	0	0	504	511	1	0	40	22	
10	0	0	0	0	509	513	2	0	40	22	
11	0	0	0	0	512	515	0	379	40	22	
12	0	0	0	0	509	514	3	874	40	22	
13	0	0	0	0	498	512	1	1018	40	22	
14	0	0	0	0	488	513	3	1018	40	22	
15	0	0	0	0	495	512	0	1018	40	22	
0	0	0	0	0	520	511	3	1018	40	22	
1	0	0	0	0	561	512	2	1018	40	22	
2	0	0	0	0	591	512	3	861	40	22	
3	0	0	0	0	576	511	2	679	40	22	
4	0	0	0	0	555	511	3	433	40	22	
5	0	0	0	0	526	510	3	143	40	22	
6	0	0	0	0	493	511	0	0	40	22	
7	0	0	0	0	479	509	2	0	40	22	
8	0	0	0	0	467	507	2	0	40	22	
9	0	0	0	0	462	508	2	0	40	22	
10	0	0	0	0	470	507	0	0	40	22	
11	0	0	0	0	481	509	2	0	40	22	
12	0	0	0	0	501	508	2	259	40	22	
13	0	0	0	0	501	510	3	604	40	22	
14	0	0	0	0	482	511	1	809	40	22	
15	0	0	0	0	464	512	2	840	40	22	
0	0	0	0	0	455	513	4	745	40	22	
1	0	0	0	0	469	512	3	741	40	22	
2	0	0	0	0	482	510	1	769	40	22	
3	0	0	0	0	517	508	1	733	40	22	
4	0	0	0	0	553	509	1	576	40	22	
5	0	0	0	0	566	511	2	347	40	22	
6	0	0	0	0	563	510	3	76	40	22	
7	0	0	0	0	551	509	1	0	40	22	
8	0	0	0	0	542	510	3	0	40	22	
9	0	0	0	0	523	509	1	0	40	22	
10	0	0	0	0	520	510	2	0	40	22	
11	0	0	0	0	533	511	0	0	40	22	
12	0	0	0	0	531	511	2	0	40	22	
13	0	0	0	0	541	511	1	462	40	22	
14	0	0	0	0	556	511	2	742	40	22	
15	0	0	0	0	566	513	0	817	40	22	
0	0	0	0	0	574	513	4	759	40	22	
1	0	0	0	0	538	511	0	710	40	22	
2	0	0	0	0	511	511	2	680	40	22	
3	0	0	0	0	498	511	2	625	40	22	
4	0	0	0	0	486	510	3	518	40	22	
5	0	0	0	0	484	508	2	336	40	22	
6	0	0	0	0	486	505	0	99	40	22	
7	0	0	0	0	492	505	2	0	40	22	
8	0	0	0	0	500	507	3	0	40	22	
9	0	0	0	0	492	506	2	0	40	22	
10	0	0	0	0	489	507	0	0	40	22	
11	0	0	0	0	491	510	2	0	40	22	
12	0	0	0	0	508	511	3	0	40	22	
13	0	0	0	0	529	509	2	318	40	22	
14	0	0	0	0	525	512	1	834	40	22	
15	0	0	0	0	515	512	3	1018	40	22	
0	0	0	0	0	508	511	2	1018	40	22	
1	0	0	0	0	508	511	2	1018	40	22	
2	0	0	0	0	506	513	0	1018	40	22	
3	0	0	0	0	511	512	3	852	40	22	
4	0	0	0	0	507	511	1	795	40	22	
5	0	0	0	0	495	511	2	663	40	22	
6	0	0	0	0	494	508	0	452	40	22	
7	0	0	0	0	491	507	2	199	40	22	
8	0	0	0	0	489	508	3	0	40	22	
9	0	0	0	0	489	505	2	0	40	22	
10	0	0	0	0	490	506	0	0	40	22	
11	0	0	0	0	496	507	2	0	40	22	
12	0	0	0	0	515	508	3	0	40	22	
13	0	0	0	0	545	508	3	254	40	22	
14	0	0	0	0	554	509	1	688	40	22	
15	0	0	0	0	542	510	3	1018	40	22	
0	0	0	0	0	534	509	2	1019	40	22	
1	0	0	0	0	527	508	3	1018	40	22	
2	0	0	0	0	531	510	1	1018	40	22	
3	0	0	0	0	528	510	3	1018	40	22	
4	0	0	0	0	518	511	2	1018	40	22	
5	0	0	0	0	506	511	2	902	40	22	
6	0	0	0	0	497	511	1	710	40	22	
7	0	0	0	0	497	510	3	451	40	22	
8	0	0	0	0	499	506	1	148	40	22	
9	0	0	0	0	497	506	3	0	40	22	
10	0	0	0	0	505	507	0	0	40	22	
11	0	0	0	0	502	507	2	0	40	22	
12	0	0	0	0	502	510	3	0	40	22	
13	0	0	0	0	516	512	2	0	40	22	
14	0	0	0	0	517	511	1	370	40	22	
15	0	0	0	0	512	512	3	910	40	22	
0	0	0	0	0	511	509	2	1018	40	22	
1	0	0	0	0	519	508	3	1018	40	22	
2	0	0	0	0	525	508	1	1018	40	22	
3	0	0	0	0	526	510	2	1018	40	22	
4	0	0	0	0	529	509	1	1017	40	22	
5	0	0	0	0	538	508	2	898	40	22	
6	0	0	0	0	543	508	1	759	40	22	
7	0	0	0	0	540	508	2	536	40	22	
8	0	0	0	0	523	508	2	247	40	22	
9	0	0	0	0	510	508	2	0	40	22	
10	0	0	0	0	519	507	0	0	40	22	
11	0	0	0	0	511	510	2	0	40	22	
12	0	0	0	0	496	509	2	0	40	22	
13	0	0	0	0	488	510	3	0	40	22	
14	0	0	0	0	486	512	1	275	40	22	
15	0	0	0	0	482	513	2	747	40	22	
0	0	0	0	0	481	516	4	1019	40	22	
1	0	0	0	0	490	513	3	1018	40	22	
2	0	0	0	0	504	514	3	1018	40	22	
3	0	0	0	0	510	514	1	1018	40	22	
4	0	0	0	0	497	514	3	1019	40	22	
5	0	0	0	0	495	513	3	1018	40	22	
6	0	0	0	0	504	513	3	1018	40	22	
7	0	0	0	0	507	512	2	1018	40	22	
8	0	0	0	0	510	510	3	698	40	22	
9	0	0	0	0	511	507	2	389	40	22	
10	0	0	0	0	507	507	3	94	40	22	
11	0	0	0	0	511	508	1	0	40	22	
12	0	0	0	0	514	509	3	0	40	22	
13	0	0	0	0	522	510	2	0	40	22	
14	0	0	0	0	543	508	2	0	40	22	
15	0	0	0	0	548	511	1	138	40	22	
0	0	0	0	0	542	512	3	483	40	22	
1	0	0	0	0	528	512	2	814	40	22	
2	0	0	0	0	522	511	3	976	40	22	
3	0	0	0	0	529	511	0	926	40	22	
4	0	0	0	0	515	510	2	786	40	22	
5	0	0	0	0	513	509	1	744	40	22	
6	0	0	0	0	521	509	3	729	40	22	
7	0	0	0	0	519	510	0	621	40	22	
8	0	0	0	0	511	511	3	449	40	22	
9	0	0	0	0	515	508	1	244	40	22	
10	0	0	0	0	505	507	2	1	40	22	
11	0	0	0	0	496	507	0	0	40	22	
12	0	0	0	0	502	506	3	0	40	22	
13	0	0	0	0	523	508	0	0	40	22	
14	0	0	0	0	511	510	3	0	40	22	
15	0	0	0	0	496	511	0	0	40	22	
0	0	0	0	0	504	515	4	240	40	22	
1	0	0	0	0	526	515	1	754	40	22	
2	0	0	0	0	545	513	3	1018	40	22	
3	0	0	0	0	545	513	1	1018	40	22	
4	0	0	0	0	540	512	3	1019	40	22	
5	0	0	0	0	517	511	1	1018	40	22	
6	0	0	0	0	492	511	2	1018	40	22	
7	0	0	0	0	487	511	2	895	40	22	
8	0	0	0	0	480	511	2	695	40	22	
9	0	0	0	0	476	508	2	493	40	22	
10	0	0	0	0	481	507	1	218	40	22	
11	0	0	0	0	499	508	2	0	40	22	
12	0	0	0	0	516	506	3	0	40	22	
13	0	0	0	0	531	507	2	0	40	22	
14	0	0	0	0	533	506	1	0	40	22	
15	0	0	0	0	533	507	2	0	40	22	
0	0	0	0	0	528	508	2	0	40	22	
1	0	0	0	0	523	510	3	634	40	22	
2	0	0	0	0	525	511	1	1018	40	22	
3	0	0	0	0	516	511	2	1018	40	22	
4	0	0	0	0	509	510	3	1018	40	22	
5	0	0	0	0	504	512	0	1018	40	22	
6	0	0	0	0	509	511	1	1018	40	22	
7	0	0	0	0	520	511	2	1017	40	22	
8	0	0	0	0	521	510	2	804	40	22	
9	0	0	0	0	515	511	3	638	40	22	
10	0	0	0	0	513	511	0	413	40	22	
11	0	0	0	0	517	512	2	152	40	22	
12	0	0	0	0	519	510	3	0	40	22	
13	0	0	0	0	519	509	2	0	40	22	
14	0	0	0	0	501	511	1	0	40	22	
15	0	0	0	0	504	513	2	0	40	22	
0	0	0	0	0	523	514	2	0	40	22	
1	0	0	0	0	523	514	3	342	40	22	
2	0	0	0	0	514	515	1	876	40	22	
3	0	0	0	0	519	516	2	1018	40	22	
4	0	0	0	0	512	514	3	1019	40	22	
5	0	0	0	0	503	512	2	1018	40	22	
6	0	0	0	0	504	513	1	1018	40	22	
7	0	0	0	0	515	514	2	1018	40	22	
8	0	0	0	0	524	512	1	1019	40	22	
9	0	0	0	0	515	511	2	1018	40	22	
10	0	0	0	0	484	510	1	902	40	22	
11	0	0	0	0	452	510	2	615	40	22	
12	0	0	0	0	432	507	3	290	40	22	
13	0	0	0	0	441	507	3	0	40	22	
14	0	0	0	0	466	507	0	0	40	22	
15	0	0	0	0	496	509	2	0	40	22	
0	0	0	0	0	516	511	3	0	40	22	
1	0	0	0	0	531	513	3	0	40	22	
2	0	0	0	0	540	513	1	339	40	22	
3	0	0	0	0	569	515	2	827	40	22	
4	0	0	0	0	544	513	2	1018	40	22	
5	0	0	0	0	528	513	3	1018	40	22	
6	0	0	0	0	524	512	1	1018	40	22	
7	0	0	0	0	527	511	3	1018	40	22	
8	0	0	0	0	531	512	3	1019	40	22	
9	0	0	0	0	526	511	3	1018	40	22	
10	0	0	0	0	522	512	1	1018	40	22	
11	0	0	0	0	529	512	2	780	40	22	
12	0	0	0	0	533	508	1	488	40	22	
13	0	0	0	0	524	506	3	215	40	22	
14	0	0	0	0	522	505	1	0	40	22	
15	0	0	0	0	524	508	2	0	40	22	
0	0	0	0	0	530	508	3	0	40	22	
1	0	0	0	0	543	507	3	0	40	22	
2	0	0	0	0	543	509	1	177	40	22	
3	0	0	0	0	540	510	2	495	40	22	
4	0	0	0	0	523	511	1	811	40	22	
5	0	0	0	0	490	511	3	1000	40	22	
6	0	0	0	0	459	513	1	1018	40	22	
7	0	0	0	0	435	512	2	928	40	22	
8	0	0	0	0	417	514	3	802	40	22	
9	0	0	0	0	430	512	3	740	40	22	
10	0	0	0	0	464	512	3	632	40	22	
11	0	0	0	0	508	510	1	465	40	22	
12	0	0	0	0	560	507	3	252	40	22	
13	0	0	0	0	579	505	2	31	40	22	
14	0	0	0	0	577	504	3	0	40	22	
15	0	0	0	0	572	504	1	0	40	22	
0	0	0	0	0	540	506	3	0	40	22	
1	0	0	0	0	519	508	2	0	40	22	
2	0	0	0	0	497	510	2	0	40	22	
3	0	0	0	0	492	512	1	202	40	22	
4	0	0	0	0	498	511	1	588	40	22	
5	0	0	0	0	501	510	3	992	40	22	
6	0	0	0	0	515	510	3	1018	40	22	
7	0	0	0	0	528	510	1	1018	40	22	
8	0	0	0	0	524	511	1	1018	40	22	
9	0	0	0	0	512	511	2	1018	40	22	
10	0	0	0	0	511	511	3	1018	40	22	
11	0	0	0	0	519	510	1	788	40	22	
12	0	0	0	0	529	511	3	603	40	22	
13	0	0	0	0	553	507	2	380	40	22	
14	0	0	0	0	568	506	2	128	40	22	
15	0	0	0	0	563	507	1	0	40	22	
0	0	0	0	0	540	506	1	0	40	22	
1	0	0	0	0	502	507	2	0	40	22	
2	0	0	0	0	462	507	0	0	40	22	
3	0	0	0	0	447	509	2	0	40	22	
4	0	0	0	0	455	509	3	263	40	22	
5	0	0	0	0	469	510	3	687	40	22	
6	0	0	0	0	493	511	0	990	40	22	
7	0	0	0	0	510	513	2	1017	40	22	
8	0	0	0	0	515	510	3	924	40	22	
9	0	0	0	0	520	510	2	809	40	22	
10	0	0	0	0	529	511	0	725	40	22	
11	0	0	0	0	532	511	2	613	40	22	
12	0	0	0	0	540	512	3	454	40	22	
13	0	0	0	0	538	508	3	264	40	22	
14	0	0	0	0	521	507	0	41	40	22	
15	0	0	0	0	499	508	2	0	40	22	
0	0	0	0	0	488	505	3	0	40	22	
1	0	0	0	0	480	508	2	0	40	22	
2	0	0	0	0	476	509	0	0	40	22	
3	0	0	0	0	480	511	2	0	40	21	
4	0	0	0	0	492	511	2	0	40	22	
5	0	0	0	0	493	512	3	417	40	21	
6	0	0	0	0	484	512	1	1016	40	21	
7	0	0	0	0	475	513	2	1018	40	21	
8	0	0	0	0	472	510	1	1019	40	21	
9	0	0	0	0	479	510	2	1018	40	21	
10	0	0	0	0	487	511	0	1018	40	21	
11	0	0	0	0	502	512	2	1018	40	21	
12	0	0	0	0	531	511	3	1018	40	21	
13	0	0	0	0	559	513	3	801	40	21	
14	0	0	0	0	588	511	0	574	40	21	
15	0	0	0	0	597	511	2	299	40	21	
0	0	0	0	0	607	510	2	25	40	21	
1	0	0	0	0	603	507	3	0	40	21	
2	0	0	0	0	562	508	3	0	40	21	
3	0	0	0	0	539	510	1	0	40	21	
4	0	0	0	0	514	511	3	0	40	21	
5	0	0	0	0	491	510	1	286	40	21	
6	0	0	0	0	485	510	3	793	40	21	
7	0	0	0	0	480	510	1	1018	40	21	
8	0	0	0	0	482	510	1	1019	40	21	
9	0	0	0	0	495	509	1	1018	40	21	
10	0	0	0	0	502	510	3	1018	40	21	
11	0	0	0	0	500	511	1	1017	40	21	
12	0	0	0	0	497	509	3	1019	40	21	
13	0	0	0	0	492	508	3	1018	40	21	
14	0	0	0	0	489	508	1	820	40	21	
15	0	0	0	0	496	508	2	559	40	21	
0	0	0	0	0	511	505	3	259	40	21	
1	0	0	0	0	518	504	3	0	40	21	
2	0	0	0	0	519	506	0	0	40	21	
3	0	0	0	0	517	507	2	0	40	21	
4	0	0	0	0	519	509	3	0	40	21	
5	0	0	0	0	534	508	3	0	40	21	
6	0	0	0	0	540	510	1	706	40	21	
7	0	0	0	0	530	511	2	1018	40	21	
8	0	0	0	0	515	511	3	1018	40	21	
9	0	0	0	0	498	511	3	1018	40	21	
10	0	0	0	0	492	512	1	1018	40	21	
11	0	0	0	0	483	512	3	1018	40	21	
12	0	0	0	0	488	512	3	1019	40	21	
13	0	0	0	0	502	511	0	1018	40	21	
14	0	0	0	0	517	510	3	1018	40	21	
15	0	0	0	0	526	510	0	1017	40	21	
0	0	0	0	0	525	509	3	563	40	21	
1	0	0	0	0	530	506	1	169	40	21	
2	0	0	0	0	509	506	2	0	40	21	
3	0	0	0	0	499	508	1	0	40	21	
4	0	0	0	0	517	510	3	0	40	21	
5	0	0	0	0	531	510	2	0	40	21	
6	0	0	0	0	528	511	1	0	40	21	
7	0	0	0	0	537	511	2	471	40	21	
8	0	0	0	0	543	512	3	791	40	21	
9	0	0	0	0	532	509	3	993	40	20	
10	0	0	0	0	504	510	1	1018	40	20	
11	0	0	0	0	489	510	2	1018	40	20	
12	0	0	0	0	482	510	2	886	40	20	
13	0	0	0	0	479	509	3	886	40	20	
14	0	0	0	0	484	510	1	792	40	20	
15	0	0	0	0	487	509	3	626	40	20	
0	0	0	0	0	475	509	2	373	40	20	
1	0	0	0	0	497	507	0	92	40	20	
2	0	0	0	0	507	506	2	0	40	20	
3	0	0	0	0	512	504	0	0	40	20	
4	0	0	0	0	527	505	3	0	40	20	
5	0	0	0	0	517	506	1	0	40	20	
6	0	0	0	0	505	508	2	0	40	20	
7	0	0	0	0	512	508	1	218	40	20	
8	0	0	0	0	536	508	3	696	40	20	
9	0	0	0	0	537	509	2	1018	40	20	
10	0	0	0	0	534	510	2	1018	40	20	
11	0	0	0	0	531	509	1	1018	40	20	
12	0	0	0	0	531	511	4	1019	40	20	
13	0	0	0	0	536	510	1	1018	40	20	
14	0	0	0	0	540	510	3	1018	40	20	
15	0	0	0	0	537	509	0	1018	40	20	
0	0	0	0	0	531	507	1	774	40	20	
1	0	0	0	0	527	505	1	488	40	20	
2	0	0	0	0	520	506	2	151	40	20	
3	0	0	0	0	518	505	0	0	40	20	
4	0	0	0	0	513	505	3	0	40	20	
5	0	0	0	0	504	504	1	0	40	20	
6	0	0	0	0	493	507	2	0	40	20	
7	0	0	0	0	489	509	0	0	40	20	
8	0	0	0	0	484	512	3	190	40	20	
9	0	0	0	0	500	511	1	883	40	20	
10	0	0	0	0	511	513	3	1018	40	20	
11	0	0	0	0	494	513	1	1018	40	20	
12	0	0	0	0	463	512	4	1019	40	20	
13	0	0	0	0	452	509	1	1018	40	20	
14	0	0	0	0	463	510	2	1018	40	20	
15	0	0	0	0	486	511	0	1018	40	20	
0	0	0	0	0	519	512	4	1018	40	20	
1	0	0	0	0	552	509	1	641	40	20	
2	0	0	0	0	575	508	3	312	40	20	
3	0	0	0	0	587	507	0	0	40	20	
4	0	0	0	0	605	506	3	0	40	20	
5	0	0	0	0	569	503	0	0	40	20	
6	0	0	0	0	544	504	3	0	40	20	
7	0	0	0	0	508	505	0	0	40	20	
8	0	0	0	0	476	508	3	0	40	20	
9	0	0	0	0	449	508	0	768	40	20	
10	0	0	0	0	462	510	3	1018	40	20	
11	0	0	0	0	464	511	1	1018	40	20	
12	0	0	0	0	471	509	3	1018	40	20	
13	0	0	0	0	474	510	1	1018	40	20	
14	0	0	0	0	484	512	3	1018	40	20	
15	0	0	0	0	480	513	1	1017	40	20	
0	0	0	0	0	479	511	3	1018	40	20	
1	0	0	0	0	486	508	0	699	40	20	
2	0	0	0	0	510	505	2	407	40	20	
3	0	0	0	0	519	506	1	105	40	20	
4	0	0	0	0	527	505	3	0	40	21	
5	0	0	0	0	544	504	0	0	40	20	
6	0	0	0	0	551	505	2	0	40	21	
7	0	0	0	0	547	507	0	0	40	21	
8	0	0	0	0	548	508	3	0	40	21	
9	0	0	0	0	548	510	0	0	40	21	
10	0	0	0	0	547	511	3	475	40	21	
11	0	0	0	0	551	511	0	790	40	21	
12	0	0	0	0	559	511	3	919	40	21	
13	0	0	0	0	547	508	0	882	40	21	
14	0	0	0	0	528	510	3	751	40	21	
15	0	0	0	0	516	508	0	625	40	21	
0	0	0	0	0	511	508	3	614	40	21	
1	0	0	0	0	511	507	0	561	40	21	
2	0	0	0	0	500	507	3	409	40	21	
3	0	0	0	0	496	508	1	199	40	21	
4	0	0	0	0	489	505	2	0	40	21	
5	0	0	0	0	468	506	0	0	40	21	
6	0	0	0	0	452	506	2	0	40	21	
7	0	0	0	0	465	506	0	0	40	21	
8	0	0	0	0	480	509	2	0	40	21	
9	0	0	0	0	496	510	0	0	40	21	
10	0	0	0	0	508	512	3	580	40	21	
11	0	0	0	0	527	513	1	1018	40	21	
12	0	0	0	0	528	515	3	1019	40	21	
13	0	0	0	0	518	513	1	1018	40	21	
14	0	0	0	0	523	512	2	1018	40	21	
15	0	0	0	0	534	513	1	1018	40	21	
0	0	0	0	0	535	513	2	1019	40	21	
1	0	0	0	0	532	514	1	1018	40	21	
2	0	0	0	0	531	514	2	1018	40	21	
3	0	0	0	0	524	512	2	1017	40	21	
4	0	0	0	0	523	509	2	610	40	21	
5	0	0	0	0	515	506	1	215	40	21	
6	0	0	0	0	500	506	1	0	40	21	
7	0	0	0	0	496	508	2	0	40	21	
8	0	0	0	0	486	508	1	0	40	21	
9	0	0	0	0	477	509	3	0	40	21	
10	0	0	0	0	477	511	1	319	40	21	
11	0	0	0	0	504	512	2	811	40	21	
12	0	0	0	0	539	512	3	1018	40	21	
13	0	0	0	0	547	513	3	1018	40	21	
14	0	0	0	0	557	513	2	1018	40	21	
15	0	0	0	0	533	513	2	1018	40	21	
0	0	0	0	0	525	513	3	1019	40	21	
1	0	0	0	0	508	513	3	1018	40	21	
2	0	0	0	0	497	512	1	1018	40	21	
3	0	0	0	0	506	511	3	1018	40	21	
4	0	0	0	0	510	508	3	659	40	21	
5	0	0	0	0	538	505	2	327	40	21	
6	0	0	0	0	531	506	0	3	40	21	
7	0	0	0	0	513	506	2	0	40	21	
8	0	0	0	0	488	509	3	0	40	21	
9	0	0	0	0	472	511	2	0	40	21	
10	0	0	0	0	453	511	0	0	40	21	
11	0	0	0	0	443	513	2	315	40	21	
12	0	0	0	0	443	511	3	909	40	21	
13	0	0	0	0	464	510	3	1018	40	21	
14	0	0	0	0	508	511	0	1018	40	21	
15	0	0	0	0	551	510	2	1018	40	21	
0	0	0	0	0	586	512	3	1019	40	21	
1	0	0	0	0	612	510	3	1018	40	21	
2	0	0	0	0	622	511	2	1018	40	21	
3	0	0	0	0	594	510	2	1018	40	21	
4	0	0	0	0	561	510	2	1019	40	21	
5	0	0	0	0	537	507	1	605	40	21	
6	0	0	0	0	526	505	2	264	40	21	
7	0	0	0	0	516	505	0	0	40	21	
8	0	0	0	0	520	506	3	0	40	22	
9	0	0	0	0	519	506	0	0	40	21	
10	0	0	0	0	522	508	2	0	40	22	
11	0	0	0	0	502	510	0	0	40	22	
12	0	0	0	0	495	512	3	425	40	22	
13	0	0	0	0	473	511	2	951	40	22	
14	0	0	0	0	457	512	3	1018	40	22	
15	0	0	0	0	451	513	1	1018	40	22	
0	0	0	0	0	454	513	3	1018	40	22	
1	0	0	0	0	457	512	1	1018	40	22	
2	0	0	0	0	465	514	3	958	40	22	
3	0	0	0	0	470	513	0	743	40	22	
4	0	0	0	0	481	513	3	529	40	22	
5	0	0	0	0	481	511	1	278	40	22	
6	0	0	0	0	496	512	2	5	40	22	
7	0	0	0	0	509	512	0	0	40	22	
8	0	0	0	0	517	509	1	0	40	22	
9	0	0	0	0	521	511	1	0	40	22	
10	0	0	0	0	521	513	2	0	40	22	
11	0	0	0	0	530	515	0	0	40	22	
12	0	0	0	0	529	516	1	0	40	22	
13	0	0	0	0	551	515	1	864	40	22	
14	0	0	0	0	548	515	3	1018	40	22	
15	0	0	0	0	525	513	1	1018	40	22	
0	0	0	0	0	510	514	2	1018	40	22	
1	0	0	0	0	515	515	1	1018	40	22	
2	0	0	0	0	516	514	2	1018	40	22	
3	0	0	0	0	529	516	1	1018	40	22	
4	0	0	0	0	528	516	3	1019	40	22	
5	0	0	0	0	514	512	1	567	40	22	
6	0	0	0	0	507	509	2	227	40	22	
7	0	0	0	0	499	506	0	0	40	22	
8	0	0	0	0	497	507	3	0	40	22	
9	0	0	0	0	508	504	1	0	40	22	
10	0	0	0	0	532	507	3	0	40	22	
11	0	0	0	0	553	509	0	0	40	22	
12	0	0	0	0	561	510	1	0	40	22	
13	0	0	0	0	570	511	1	308	40	22	
14	0	0	0	0	554	513	3	992	40	22	
15	0	0	0	0	538	514	1	1018	40	22	
0	0	0	0	0	525	513	3	1019	40	22	
1	0	0	0	0	504	511	2	1018	40	22	
2	0	0	0	0	470	513	3	1018	40	22	
3	0	0	0	0	458	515	2	1018	40	22	
4	0	0	0	0	464	514	3	1019	40	22	
5	0	0	0	0	481	511	3	1018	40	22	
6	0	0	0	0	493	510	1	1018	40	22	
7	0	0	0	0	523	511	2	594	40	22	
8	0	0	0	0	519	507	2	213	40	22	
9	0	0	0	0	499	506	3	0	40	22	
10	0	0	0	0	482	508	0	0	40	22	
11	0	0	0	0	480	510	2	0	40	22	
12	0	0	0	0	492	512	2	0	40	22	
13	0	0	0	0	516	513	3	0	40	22	
14	0	0	0	0	531	513	2	543	40	22	
15	0	0	0	0	557	513	1	1018	40	22	
0	0	0	0	0	532	513	3	1019	40	22	
1	0	0	0	0	515	512	1	1018	40	22	
2	0	0	0	0	511	512	3	1018	40	22	
3	0	0	0	0	498	512	0	1018	40	22	
4	0	0	0	0	506	511	3	1019	40	22	
5	0	0	0	0	512	510	0	1018	40	22	
6	0	0	0	0	513	509	3	1018	40	22	
7	0	0	0	0	526	508	0	860	40	22	
8	0	0	0	0	546	505	3	413	40	22	
9	0	0	0	0	593	504	0	18	40	22	
10	0	0	0	0	608	503	3	0	40	22	
11	0	0	0	0	596	503	0	0	40	22	
12	0	0	0	0	583	504	2	0	40	22	
13	0	0	0	0	568	507	1	0	40	22	
14	0	0	0	0	531	510	2	0	40	22	
15	0	0	0	0	492	512	1	697	40	22	
0	0	0	0	0	462	514	3	1018	40	22	
1	0	0	0	0	438	512	1	1018	40	22	
2	0	0	0	0	418	512	2	1018	40	22	
3	0	0	0	0	378	512	2	1018	40	22	
4	0	0	0	0	363	513	3	1019	40	22	
5	0	0	0	0	400	512	1	1018	40	22	
6	0	0	0	0	450	511	2	789	40	22	
7	0	0	0	0	479	510	3	536	40	22	
8	0	0	0	0	525	510	2	211	40	22	
9	0	0	0	0	548	506	1	0	40	22	
10	0	0	0	0	560	507	3	0	40	22	
11	0	0	0	0	560	507	0	0	40	22	
12	0	0	0	0	566	505	3	0	40	22	
13	0	0	0	0	556	507	1	0	40	22	
14	0	0	0	0	555	509	2	0	40	22	
15	0	0	0	0	536	512	0	0	40	22	
0	0	0	0	0	526	512	4	672	40	22	
1	0	0	0	0	510	512	2	1018	40	22	
2	0	0	0	0	483	512	2	1018	40	22	
3	0	0	0	0	452	511	1	1018	40	22	
4	0	0	0	0	462	510	4	1019	40	23	
5	0	0	0	0	474	509	3	1018	40	22	
6	0	0	0	0	485	509	1	1018	40	23	
7	0	0	0	0	504	509	2	1008	40	23	
8	0	0	0	0	534	508	3	626	40	23	
9	0	0	0	0	540	507	2	276	40	23	
10	0	0	0	0	542	506	1	0	40	23	
11	0	0	0	0	554	507	2	0	40	23	
12	0	0	0	0	574	507	1	0	40	23	
13	0	0	0	0	566	508	1	0	40	23	
14	0	0	0	0	549	512	2	0	40	23	
15	0	0	0	0	532	513	1	0	40	23	
0	0	0	0	0	513	515	3	307	40	23	
1	0	0	0	0	506	515	0	990	40	23	
2	0	0	0	0	503	515	3	1018	40	23	
3	0	0	0	0	511	514	0	1018	40	23	
4	0	0	0	0	503	514	4	1019	40	23	
5	0	0	0	0	481	512	2	1018	40	23	
6	0	0	0	0	469	512	2	1018	40	23	
7	0	0	0	0	487	511	1	1018	40	23	
8	0	0	0	0	506	511	3	787	40	23	
9	0	0	0	0	513	508	2	491	40	23	
10	0	0	0	0	529	507	1	143	40	23	
11	0	0	0	0	548	507	2	0	40	23	
12	0	0	0	0	547	504	3	0	40	23	
13	0	0	0	0	536	505	2	0	40	23	
14	0	0	0	0	524	507	1	0	40	23	
15	0	0	0	0	507	511	3	0	40	23	
0	0	0	0	0	495	511	1	0	40	23	
1	0	0	0	0	489	515	0	870	40	23	
2	0	0	0	0	495	517	3	1018	40	23	
3	0	0	0	0	498	515	0	1018	40	23	
4	0	0	0	0	501	511	2	1019	40	23	
5	0	0	0	0	500	512	1	1019	40	23	
6	0	0	0	0	496	513	3	1018	40	23	
7	0	0	0	0	484	513	1	1018	40	23	
8	0	0	0	0	490	512	3	1019	40	23	
9	0	0	0	0	499	511	3	1018	40	23	
10	0	0	0	0	531	509	0	615	40	23	
11	0	0	0	0	557	505	2	224	40	23	
12	0	0	0	0	600	502	3	0	40	23	
13	0	0	0	0	614	502	2	0	40	23	
14	0	0	0	0	561	502	1	0	40	23	
15	0	0	0	0	514	506	2	0	40	23	
0	0	0	0	0	485	509	2	0	40	23	
1	0	0	0	0	470	511	1	394	40	23	
2	0	0	0	0	458	510	2	1017	40	23	
3	0	0	0	0	467	509	1	1018	40	23	
4	0	0	0	0	482	511	3	1019	40	23	
5	0	0	0	0	487	510	1	1018	40	23	
6	0	0	0	0	496	511	3	1018	40	23	
7	0	0	0	0	516	512	1	1016	40	23	
8	0	0	0	0	527	515	3	774	40	23	
9	0	0	0	0	534	514	1	607	40	23	
10	0	0	0	0	531	512	2	371	40	23	
11	0	0	0	0	539	510	0	84	40	23	
12	0	0	0	0	543	509	3	0	40	23	
13	0	0	0	0	540	506	0	0	40	23	
14	0	0	0	0	529	506	3	0	40	23	
15	0	0	0	0	505	508	0	0	40	23	
0	0	0	0	0	497	511	3	0	40	23	
1	0	0	0	0	495	512	0	0	40	23	
2	0	0	0	0	502	512	3	503	40	23	
3	0	0	0	0	512	515	1	1018	40	23	
4	0	0	0	0	506	514	3	1019	40	23	
5	0	0	0	0	488	511	1	1018	40	23	
6	0	0	0	0	478	511	2	1018	40	23	
7	0	0	0	0	473	513	2	1018	40	23	
8	0	0	0	0	488	514	2	1019	40	24	
9	0	0	0	0	507	513	3	956	40	23	
10	0	0	0	0	507	511	1	645	40	23	
11	0	0	0	0	500	509	2	352	40	23	
12	0	0	0	0	512	507	2	29	40	24	
13	0	0	0	0	516	506	2	0	40	23	
14	0	0	0	0	525	505	1	0	40	23	
15	0	0	0	0	536	508	2	0	40	23	
0	0	0	0	0	534	510	2	0	40	24	
1	0	0	0	0	533	509	2	0	40	23	
2	0	0	0	0	545	512	1	0	40	23	
3	0	0	0	0	550	511	2	457	40	23	
4	0	0	0	0	538	514	3	1009	40	24	
5	0	0	0	0	529	511	3	1018	40	23	
6	0	0	0	0	512	512	1	1018	40	23	
7	0	0	0	0	513	513	2	1018	40	23	
8	0	0	0	0	497	512	3	1019	40	24	
9	0	0	0	0	504	511	2	1018	40	24	
10	0	0	0	0	511	511	0	1018	40	24	
11	0	0	0	0	511	510	3	758	40	23	
12	0	0	0	0	514	509	2	426	40	24	
13	0	0	0	0	522	506	2	68	40	23	
14	0	0	0	0	509	506	0	0	40	24	
15	0	0	0	0	492	506	2	0	40	23	
0	0	0	0	0	478	508	3	0	40	24	
1	0	0	0	0	484	510	2	0	40	23	
2	0	0	0	0	482	512	1	0	40	24	
3	0	0	0	0	491	512	2	94	40	24	
4	0	0	0	0	513	512	3	775	40	24	
5	0	0	0	0	522	512	1	1018	40	23	
6	0	0	0	0	533	512	3	1018	40	23	
7	0	0	0	0	535	512	0	1018	40	23	
8	0	0	0	0	528	514	4	1019	40	24	
9	0	0	0	0	538	513	1	1018	40	23	
10	0	0	0	0	521	510	3	1018	40	24	
11	0	0	0	0	504	509	0	1018	40	24	
12	0	0	0	0	491	507	2	716	40	24	
13	0	0	0	0	475	505	1	394	40	24	
14	0	0	0	0	479	505	2	37	40	24	
15	0	0	0	0	521	504	0	0	40	24	
0	0	0	0	0	549	505	2	0	40	24	
1	0	0	0	0	550	504	0	0	40	24	
2	0	0	0	0	543	507	2	0	40	24	
3	0	0	0	0	540	510	0	0	40	24	
4	0	0	0	0	533	511	3	389	40	24	
5	0	0	0	0	527	512	0	1008	40	23	
6	0	0	0	0	514	514	3	1018	40	24	
7	0	0	0	0	488	516	1	1018	40	24	
8	0	0	0	0	493	513	1	1019	40	24	
9	0	0	0	0	495	514	1	1018	40	24	
10	0	0	0	0	489	513	3	1018	40	24	
11	0	0	0	0	514	514	1	852	40	24	
12	0	0	0	0	547	511	3	594	40	24	
13	0	0	0	0	561	510	1	285	40	24	
14	0	0	0	0	553	508	3	0	40	24	
15	0	0	0	0	541	506	0	0	40	24	
0	0	0	0	0	511	505	2	0	40	24	
1	0	0	0	0	437	506	1	0	40	24	
2	0	0	0	0	416	509	2	0	40	24	
3	0	0	0	0	411	511	1	0	40	24	
4	0	0	0	0	449	511	1	0	40	24	
5	0	0	0	0	454	511	1	697	40	24	
6	0	0	0	0	468	513	2	1018	40	24	
7	0	0	0	0	496	514	3	1018	40	24	
8	0	0	0	0	521	511	2	1019	40	24	
9	0	0	0	0	532	511	1	1019	40	24	
10	0	0	0	0	555	512	1	1018	40	24	
11	0	0	0	0	586	514	2	1018	40	24	
12	0	0	0	0	613	511	3	1019	40	24	
13	0	0	0	0	603	510	1	835	40	24	
14	0	0	0	0	582	508	1	457	40	24	
15	0	0	0	0	555	507	0	73	40	24	
0	0	0	0	0	536	505	3	0	40	24	
1	0	0	0	0	508	505	0	0	40	24	
2	0	0	0	0	471	508	3	0	40	24	
3	0	0	0	0	459	510	0	0	40	24	
4	0	0	0	0	472	511	1	0	40	24	
5	0	0	0	0	475	513	1	389	40	24	
6	0	0	0	0	461	515	3	1018	40	24	
7	0	0	0	0	452	512	2	1018	40	24	
8	0	0	0	0	451	511	3	1019	40	24	
9	0	0	0	0	475	509	3	1018	40	24	
10	0	0	0	0	494	511	1	1018	40	24	
11	0	0	0	0	514	511	3	1018	40	24	
12	0	0	0	0	528	508	3	1019	40	24	
13	0	0	0	0	537	505	2	1018	40	24	
14	0	0	0	0	545	504	0	550	40	24	
15	0	0	0	0	556	505	2	171	40	24	
0	0	0	0	0	562	505	2	0	40	24	
1	0	0	0	0	560	502	1	0	40	24	
2	0	0	0	0	557	504	3	0	40	24	
3	0	0	0	0	551	505	0	0	40	24	
4	0	0	0	0	543	508	1	0	40	24	
5	0	0	0	0	531	507	1	0	40	24	
6	0	0	0	0	512	508	3	0	40	24	
7	0	0	0	0	500	507	1	824	40	24	
8	0	0	0	0	494	505	1	1019	40	24	
9	0	0	0	0	487	506	2	1018	40	24	
10	0	0	0	0	495	508	3	1018	40	24	
11	0	0	0	0	494	509	1	828	40	24	
12	0	0	0	0	511	511	3	672	40	24	
13	0	0	0	0	536	508	1	565	40	24	
14	0	0	0	0	558	509	2	361	40	24	
15	0	0	0	0	566	508	1	101	40	24	
0	0	0	0	0	561	508	2	0	40	24	
1	0	0	0	0	554	508	1	0	40	24	
2	0	0	0	0	521	507	2	0	40	24	
3	0	0	0	0	477	510	0	0	40	24	
4	0	0	0	0	430	510	3	0	40	24	
5	0	0	0	0	428	511	1	0	40	24	
6	0	0	0	0	453	513	3	0	40	24	
7	0	0	0	0	464	513	0	664	40	24	
8	0	0	0	0	513	513	2	1017	40	24	
9	0	0	0	0	565	512	1	1018	40	24	
10	0	0	0	0	575	512	2	1018	40	24	
11	0	0	0	0	557	510	0	1018	40	24	
12	0	0	0	0	523	511	4	1019	40	24	
13	0	0	0	0	492	511	1	901	40	24	
14	0	0	0	0	474	511	2	774	40	24	
15	0	0	0	0	471	511	0	525	40	24	
0	0	0	0	0	448	510	3	206	40	24	
1	0	0	0	0	439	507	1	0	40	24	
2	0	0	0	0	448	506	2	0	40	24	
3	0	0	0	0	468	507	1	0	40	24	
4	0	0	0	0	471	508	1	0	40	24	
5	0	0	0	0	486	510	1	0	40	24	
6	0	0	0	0	513	513	2	0	40	24	
7	0	0	0	0	555	515	1	284	40	24	
8	0	0	0	0	589	515	4	899	40	24	
9	0	0	0	0	594	515	2	1018	40	24	
10	0	0	0	0	574	515	2	1018	40	24	
11	0	0	0	0	561	514	0	1018	40	24	
12	0	0	0	0	538	515	4	1019	40	24	
13	0	0	0	0	506	513	1	1018	40	24	
14	0	0	0	0	500	511	3	1018	40	24	
15	0	0	0	0	492	511	0	1018	40	24	
0	0	0	0	0	521	510	3	663	40	24	
1	0	0	0	0	511	506	1	304	40	24	
2	0	0	0	0	490	504	2	0	40	24	
3	0	0	0	0	500	504	1	0	40	24	
4	0	0	0	0	513	505	3	0	40	24	
5	0	0	0	0	527	505	1	0	40	24	
6	0	0	0	0	529	509	2	0	40	24	
7	0	0	0	0	534	512	0	0	40	24	
8	0	0	0	0	529	513	3	709	40	24	
9	0	0	0	0	520	513	1	1018	40	24	
10	0	0	0	0	521	513	2	1018	40	24	
11	0	0	0	0	515	512	0	1018	40	24	
12	0	0	0	0	507	512	2	1018	40	24	
13	0	0	0	0	503	512	2	1018	40	24	
14	0	0	0	0	503	512	2	1018	40	24	
15	0	0	0	0	511	511	1	1018	40	24	
0	0	0	0	0	525	511	3	801	40	24	
1	0	0	0	0	521	508	3	374	40	24	
2	0	0	0	0	508	505	1	0	40	24	
3	0	0	0	0	509	504	2	0	40	24	
4	0	0	0	0	520	503	2	0	40	24	
5	0	0	0	0	525	505	1	0	40	24	
6	0	0	0	0	528	509	2	0	40	24	
7	0	0	0	0	518	513	0	0	40	24	
8	0	0	0	0	505	514	3	0	40	24	
9	0	0	0	0	504	513	0	621	40	24	
10	0	0	0	0	509	514	3	1018	40	24	
11	0	0	0	0	508	515	0	1018	40	24	
12	0	0	0	0	493	511	1	1019	40	24	
13	0	0	0	0	489	512	0	1018	40	24	
14	0	0	0	0	492	512	3	1018	40	24	
15	0	0	0	0	496	513	0	1017	40	24	
0	0	0	0	0	515	512	2	690	40	24	
1	0	0	0	0	528	510	0	380	40	24	
2	0	0	0	0	538	509	2	51	40	24	
3	0	0	0	0	548	508	0	0	40	24	
4	0	0	0	0	561	509	3	0	40	24	
5	0	0	0	0	560	506	1	0	40	24	
6	0	0	0	0	547	508	2	0	40	24	
7	0	0	0	0	534	511	0	0	40	24	
8	0	0	0	0	509	512	3	0	40	24	
9	0	0	0	0	486	513	1	0	40	24	
10	0	0	0	0	478	513	3	818	40	24	
11	0	0	0	0	487	513	1	1018	40	24	
12	0	0	0	0	479	512	3	1019	40	24	
13	0	0	0	0	468	511	1	1018	40	24	
14	0	0	0	0	486	512	3	1018	40	24	
15	0	0	0	0	495	514	1	892	40	24	
0	0	0	0	0	477	514	3	734	40	24	
1	0	0	0	0	455	514	3	511	40	24	
2	0	0	0	0	476	512	1	250	40	24	
3	0	0	0	0	525	510	2	0	40	24	
4	0	0	0	0	545	507	3	0	40	24	
5	0	0	0	0	526	503	3	0	40	24	
6	0	0	0	0	479	505	1	0	40	24	
7	0	0	0	0	466	507	2	0	40	24	
8	0	0	0	0	513	509	4	0	40	24	
9	0	0	0	0	519	510	3	0	40	24	
10	0	0	0	0	498	512	1	687	40	24	
11	0	0	0	0	488	513	3	1018	40	24	
12	0	0	0	0	497	514	3	1019	40	24	
13	0	0	0	0	524	513	3	1018	40	24	
14	0	0	0	0	536	514	1	1018	40	24	
15	0	0	0	0	542	514	2	1018	40	24	
0	0	0	0	0	548	511	1	1019	40	24	
1	0	0	0	0	553	510	3	1018	40	24	
2	0	0	0	0	569	511	0	839	40	24	
3	0	0	0	0	569	508	2	467	40	24	
4	0	0	0	0	571	505	1	38	40	24	
5	0	0	0	0	556	505	3	0	40	24	
6	0	0	0	0	544	504	0	0	40	24	
7	0	0	0	0	524	508	2	0	40	24	
8	0	0	0	0	520	509	3	0	40	24	
9	0	0	0	0	505	511	3	0	40	24	
10	0	0	0	0	492	513	0	0	40	24	
11	0	0	0	0	483	515	3	880	40	24	
12	0	0	0	0	476	516	2	1019	40	24	
13	0	0	0	0	457	515	3	1018	40	24	
14	0	0	0	0	443	515	1	1018	40	24	
15	0	0	0	0	442	515	2	1018	40	24	
0	0	0	0	0	471	515	3	1019	40	24	
1	0	0	0	0	502	515	3	1018	40	24	
2	0	0	0	0	522	511	1	1018	40	24	
3	0	0	0	0	526	510	2	773	40	24	
4	0	0	0	0	526	510	3	375	40	24	
5	0	0	0	0	519	507	2	0	40	24	
6	0	0	0	0	531	508	1	0	40	24	
7	0	0	0	0	545	508	2	0	40	24	
8	0	0	0	0	546	508	3	0	40	24	
9	0	0	0	0	526	510	2	0	40	24	
10	0	0	0	0	511	511	1	0	40	24	
11	0	0	0	0	512	515	2	431	40	24	
12	0	0	0	0	523	517	2	1019	40	24	
13	0	0	0	0	515	518	1	1018	40	24	
14	0	0	0	0	503	517	2	1018	40	24	
15	0	0	0	0	505	515	1	1018	40	24	
0	0	0	0	0	506	513	3	1019	40	24	
1	0	0	0	0	512	515	1	1018	40	24	
2	0	0	0	0	533	515	3	1018	40	24	
3	0	0	0	0	545	513	1	1018	40	24	
4	0	0	0	0	559	512	3	713	40	24	
5	0	0	0	0	561	510	2	283	40	24	
6	0	0	0	0	556	510	1	0	40	24	
7	0	0	0	0	564	509	2	0	40	24	
8	0	0	0	0	553	511	3	0	40	24	
9	0	0	0	0	533	513	2	0	40	24	
10	0	0	0	0	523	514	1	0	40	24	
11	0	0	0	0	498	516	2	0	40	24	
12	0	0	0	0	446	518	1	406	40	24	
13	0	0	0	0	428	518	0	1018	40	24	
14	0	0	0	0	424	515	3	1018	40	24	
15	0	0	0	0	418	515	0	1018	40	24	
0	0	0	0	0	434	511	2	1018	40	24	
1	0	0	0	0	462	513	2	1018	40	24	
2	0	0	0	0	477	512	3	1018	40	24	
3	0	0	0	0	471	512	1	1017	40	24	
4	0	0	0	0	483	513	3	751	40	24	
5	0	0	0	0	512	510	3	402	40	24	
6	0	0	0	0	527	508	1	21	40	24	
7	0	0	0	0	543	505	2	0	40	24	
8	0	0	0	0	559	504	3	0	40	24	
9	0	0	0	0	553	507	2	0	40	24	
10	0	0	0	0	557	509	1	0	40	24	
11	0	0	0	0	542	511	2	0	40	24	
12	0	0	0	0	530	512	3	0	40	24	
13	0	0	0	0	546	514	3	801	40	24	
14	0	0	0	0	575	514	1	1018	40	24	
15	0	0	0	0	580	514	3	1018	40	24	
0	0	0	0	0	578	512	2	1018	40	24	
1	0	0	0	0	567	513	3	1018	40	24	
2	0	0	0	0	583	513	0	1018	40	24	
3	0	0	0	0	575	514	3	1017	40	24	
4	0	0	0	0	537	511	3	775	40	24	
5	0	0	0	0	481	510	2	422	40	24	
6	0	0	0	0	459	508	0	61	40	24	
7	0	0	0	0	438	506	2	0	40	24	
8	0	0	0	0	400	505	3	0	40	24	
9	0	0	0	0	385	506	2	0	40	24	
10	0	0	0	0	399	509	0	0	40	24	
11	0	0	0	0	424	511	2	0	40	24	
12	0	0	0	0	479	512	3	0	40	24	
13	0	0	0	0	503	515	3	435	40	24	
14	0	0	0	0	516	514	1	1018	40	24	
15	0	0	0	0	526	514	2	1018	40	24	
0	0	0	0	0	543	510	3	1018	40	24	
1	0	0	0	0	551	511	2	1018	40	24	
2	0	0	0	0	548	512	1	1018	40	24	
3	0	0	0	0	536	516	2	1018	40	24	
4	0	0	0	0	512	515	3	1017	40	24	
5	0	0	0	0	506	512	2	782	40	24	
6	0	0	0	0	516	511	1	432	40	24	
7	0	0	0	0	527	509	2	67	40	24	
8	0	0	0	0	531	505	1	0	40	24	
9	0	0	0	0	524	507	3	0	40	24	
10	0	0	0	0	537	509	1	0	40	24	
11	0	0	0	0	536	510	2	0	40	24	
12	0	0	0	0	536	511	3	0	40	24	
13	0	0	0	0	535	513	1	0	40	24	
14	0	0	0	0	529	513	2	377	40	24	
15	0	0	0	0	526	514	1	1018	40	24	
0	0	0	0	0	522	514	3	1019	40	24	
1	0	0	0	0	512	512	0	1018	40	24	
2	0	0	0	0	514	512	3	1018	40	24	
3	0	0	0	0	509	514	1	1018	40	24	
4	0	0	0	0	512	515	3	1019	40	24	
5	0	0	0	0	527	512	0	936	40	24	
6	0	0	0	0	528	511	3	744	40	24	
7	0	0	0	0	527	510	0	433	40	24	
8	0	0	0	0	524	505	1	41	40	24	
9	0	0	0	0	528	505	1	0	40	24	
10	0	0	0	0	537	506	2	0	40	24	
11	0	0	0	0	510	510	1	0	40	24	
12	0	0	0	0	477	512	1	0	40	24	
13	0	0	0	0	481	512	3	0	40	24	
14	0	0	0	0	481	514	1	370	40	24	
15	0	0	0	0	476	514	2	1018	40	24	
0	0	0	0	0	487	515	2	1019	40	24	
1	0	0	0	0	521	515	3	1018	40	24	
2	0	0	0	0	545	515	1	1018	40	24	
3	0	0	0	0	533	514	2	1018	40	24	
4	0	0	0	0	518	514	2	1019	40	24	
5	0	0	0	0	514	513	3	1018	40	24	
6	0	0	0	0	494	513	0	848	40	24	
7	0	0	0	0	492	511	3	478	40	24	
8	0	0	0	0	521	506	2	55	40	24	
9	0	0	0	0	528	504	2	0	40	24	
10	0	0	0	0	514	504	1	0	40	24	
11	0	0	0	0	507	505	2	0	40	24	
12	0	0	0	0	503	506	2	0	40	24	
13	0	0	0	0	524	505	2	0	40	24	
14	0	0	0	0	550	509	1	0	40	24	
15	0	0	0	0	512	512	2	569	40	24	
0	0	0	0	0	454	511	3	1019	40	24	
1	0	0	0	0	438	511	3	1018	40	24	
2	0	0	0	0	456	510	1	1018	40	24	
3	0	0	0	0	480	510	2	1018	40	24	
4	0	0	0	0	484	511	3	1018	40	24	
5	0	0	0	0	481	512	1	1018	40	24	
6	0	0	0	0	498	512	3	1018	40	24	
7	0	0	0	0	540	510	0	1018	40	24	
8	0	0	0	0	588	508	3	1019	40	24	
9	0	0	0	0	620	507	0	451	40	24	
10	0	0	0	0	627	506	2	4	40	24	
11	0	0	0	0	616	506	1	0	40	24	
12	0	0	0	0	590	509	3	0	40	24	
13	0	0	0	0	557	508	1	0	40	24	
14	0	0	0	0	516	512	0	0	40	24	
15	0	0	0	0	453	512	3	0	40	24	
0	0	0	0	0	426	513	3	1017	40	24	
1	0	0	0	0	395	512	3	1018	40	24	
2	0	0	0	0	413	511	1	1018	40	24	
3	0	0	0	0	423	514	2	1018	40	24	
4	0	0	0	0	441	512	2	1019	40	24	
5	0	0	0	0	472	510	1	1018	40	24	
6	0	0	0	0	502	512	3	1018	40	24	
7	0	0	0	0	515	510	0	1018	40	24	
8	0	0	0	0	505	509	3	625	40	24	
9	0	0	0	0	521	506	1	224	40	24	
10	0	0	0	0	558	504	2	0	40	24	
11	0	0	0	0	560	503	2	0	40	24	
12	0	0	0	0	552	504	1	0	40	24	
13	0	0	0	0	547	506	2	0	40	24	
14	0	0	0	0	539	508	0	0	40	24	
15	0	0	0	0	530	510	2	0	40	24	
0	0	0	0	0	530	511	2	0	40	24	
1	0	0	0	0	536	510	1	273	40	24	
2	0	0	0	0	551	511	3	860	40	24	
3	0	0	0	0	551	511	0	1018	40	24	
4	0	0	0	0	536	510	2	1018	40	24	
5	0	0	0	0	537	512	1	835	40	24	
6	0	0	0	0	521	513	3	664	40	24	
7	0	0	0	0	505	513	2	465	40	24	
8	0	0	0	0	495	511	1	253	40	24	
9	0	0	0	0	494	509	2	6	40	24	
10	0	0	0	0	511	508	0	0	40	24	
11	0	0	0	0	505	506	2	0	40	24	
12	0	0	0	0	502	505	3	0	40	24	
13	0	0	0	0	515	504	1	0	40	24	
14	0	0	0	0	512	509	3	0	40	24	
15	0	0	0	0	508	513	0	0	40	24	
0	0	0	0	0	507	513	2	0	40	24	
1	0	0	0	0	498	513	1	0	40	24	
2	0	0	0	0	481	514	3	939	40	24	
3	0	0	0	0	472	514	2	1018	40	24	
4	0	0	0	0	502	514	3	1019	40	24	
5	0	0	0	0	528	510	2	1018	40	24	
6	0	0	0	0	526	510	1	1018	40	24	
7	0	0	0	0	529	512	2	1018	40	24	
8	0	0	0	0	540	510	2	1019	40	24	
9	0	0	0	0	521	507	1	810	40	24	
10	0	0	0	0	497	508	2	486	40	24	
11	0	0	0	0	510	508	0	134	40	24	
12	0	0	0	0	521	506	3	0	40	24	
13	0	0	0	0	507	503	1	0	40	24	
14	0	0	0	0	496	505	2	0	40	24	
15	0	0	0	0	477	508	1	0	40	24	
0	0	0	0	0	484	511	1	0	40	24	
1	0	0	0	0	454	512	3	0	40	24	
2	0	0	0	0	457	513	1	641	40	24	
3	0	0	0	0	494	513	2	1018	40	24	
4	0	0	0	0	525	508	3	1018	40	24	
5	0	0	0	0	536	509	0	1018	40	24	
6	0	0	0	0	530	510	3	1018	40	24	
7	0	0	0	0	532	511	1	1018	40	24	
8	0	0	0	0	539	511	4	1019	40	24	
9	0	0	0	0	537	508	1	1018	40	24	
10	0	0	0	0	530	508	3	1018	40	24	
11	0	0	0	0	530	507	2	497	40	24	
12	0	0	0	0	533	507	3	67	40	24	
13	0	0	0	0	531	503	2	0	40	24	
14	0	0	0	0	532	503	1	0	40	24	
15	0	0	0	0	534	506	3	0	40	24	
0	0	0	0	0	526	506	3	0	40	24	
1	0	0	0	0	508	509	3	0	40	24	
2	0	0	0	0	491	511	1	372	40	24	
3	0	0	0	0	484	512	0	1018	40	24	
4	0	0	0	0	497	513	3	1019	40	24	
5	0	0	0	0	510	509	1	1018	40	24	
6	0	0	0	0	508	510	3	1018	40	24	
7	0	0	0	0	513	512	1	1018	40	24	
8	0	0	0	0	521	512	3	1019	40	24	
9	0	0	0	0	522	510	3	1018	40	24	
10	0	0	0	0	519	509	1	1018	40	24	
11	0	0	0	0	519	509	3	816	40	24	
12	0	0	0	0	530	506	3	343	40	24	
13	0	0	0	0	542	503	2	0	40	24	
14	0	0	0	0	547	503	0	0	40	24	
15	0	0	0	0	529	503	2	0	40	24	
0	0	0	0	0	503	505	3	0	40	24	
1	0	0	0	0	487	507	2	0	40	24	
2	0	0	0	0	492	510	1	0	40	24	
3	0	0	0	0	495	514	2	841	40	24	
4	0	0	0	0	499	513	3	1019	40	24	
5	0	0	0	0	488	512	2	1018	40	24	
6	0	0	0	0	461	512	2	1019	40	24	
7	0	0	0	0	491	511	2	1018	40	24	
8	0	0	0	0	523	511	3	1019	40	24	
9	0	0	0	0	527	511	1	1018	40	24	
10	0	0	0	0	528	509	2	1018	40	24	
11	0	0	0	0	537	510	2	1018	40	24	
12	0	0	0	0	555	509	2	489	40	24	
13	0	0	0	0	555	507	0	17	40	24	
14	0	0	0	0	534	508	2	0	40	24	
15	0	0	0	0	507	507	0	0	40	24	
0	0	0	0	0	508	508	1	0	40	24	
1	0	0	0	0	472	509	0	0	40	24	
2	0	0	0	0	435	513	3	0	40	24	
3	0	0	0	0	432	515	0	0	40	24	
4	0	0	0	0	473	514	1	752	40	24	
5	0	0	0	0	515	513	1	1018	40	24	
6	0	0	0	0	543	513	3	1018	40	24	
7	0	0	0	0	546	511	0	1018	40	24	
8	0	0	0	0	525	510	3	1019	40	24	
9	0	0	0	0	513	512	1	1018	40	24	
10	0	0	0	0	504	514	3	1018	40	24	
11	0	0	0	0	536	513	0	1017	40	24	
12	0	0	0	0	560	510	3	523	40	24	
13	0	0	0	0	574	509	0	87	40	24	
14	0	0	0	0	552	508	3	0	40	24	
15	0	0	0	0	541	505	0	0	40	24	
0	0	0	0	0	521	503	3	0	40	24	
1	0	0	0	0	465	505	1	0	40	24	
2	0	0	0	0	443	507	2	0	40	24	
3	0	0	0	0	477	508	1	0	40	24	
4	0	0	0	0	496	509	1	0	40	24	
5	0	0	0	0	494	512	3	844	40	24	
6	0	0	0	0	501	513	1	1018	40	24	
7	0	0	0	0	502	512	3	1018	40	24	
8	0	0	0	0	508	510	3	1019	40	24	
9	0	0	0	0	516	510	3	1018	40	24	
10	0	0	0	0	523	510	1	1018	40	24	
11	0	0	0	0	528	511	2	1017	40	24	
12	0	0	0	0	534	510	2	723	40	24	
13	0	0	0	0	513	509	3	325	40	24	
14	0	0	0	0	523	509	1	0	40	24	
15	0	0	0	0	537	509	2	0	40	24	
0	0	0	0	0	534	507	3	0	40	24	
1	0	0	0	0	531	508	1	0	40	24	
2	0	0	0	0	514	510	2	0	40	24	
3	0	0	0	0	500	512	1	0	40	24	
4	0	0	0	0	493	514	2	0	40	24	
5	0	0	0	0	480	514	1	293	40	24	
6	0	0	0	0	493	514	3	1018	40	24	
7	0	0	0	0	517	514	1	1018	40	24	
8	0	0	0	0	516	514	1	1019	40	24	
9	0	0	0	0	490	512	0	1018	40	24	
10	0	0	0	0	496	514	3	1018	40	24	
11	0	0	0	0	521	513	1	1018	40	24	
12	0	0	0	0	530	513	3	665	40	24	
13	0	0	0	0	529	512	1	383	40	24	
14	0	0	0	0	538	510	2	56	40	24	
15	0	0	0	0	535	510	0	0	40	24	
0	0	0	0	0	519	507	1	0	40	24	
1	0	0	0	0	515	506	1	0	40	24	
2	0	0	0	0	512	507	2	0	40	24	
3	0	0	0	0	522	510	1	0	40	24	
4	0	0	0	0	528	512	3	0	40	24	
5	0	0	0	0	520	513	3	0	40	24	
6	0	0	0	0	493	516	1	353	40	24	
7	0	0	0	0	478	516	2	1018	40	24	
8	0	0	0	0	485	515	2	1019	40	24	
9	0	0	0	0	501	514	0	1018	40	24	
10	0	0	0	0	513	513	3	1018	40	24	
11	0	0	0	0	526	513	0	1018	40	24	
12	0	0	0	0	526	513	3	1019	40	24	
13	0	0	0	0	521	511	0	1018	40	24	
14	0	0	0	0	527	510	3	727	40	24	
15	0	0	0	0	530	509	0	309	40	24	
0	0	0	0	0	519	507	1	0	40	24	
1	0	0	0	0	520	505	0	0	40	24	
2	0	0	0	0	523	505	2	0	40	24	
3	0	0	0	0	513	509	0	0	40	24	
4	0	0	0	0	512	511	4	0	40	24	
5	0	0	0	0	477	511	1	0	40	24	
6	0	0	0	0	466	512	3	333	40	24	
7	0	0	0	0	498	513	1	1018	40	24	
8	0	0	0	0	522	514	3	1019	40	24	
9	0	0	0	0	529	513	2	1018	40	24	
10	0	0	0	0	538	512	3	1018	40	24	
11	0	0	0	0	559	513	1	1018	40	24	
12	0	0	0	0	572	511	1	1018	40	24	
13	0	0	0	0	544	513	1	1018	40	24	
14	0	0	0	0	521	512	3	1018	40	24	
15	0	0	0	0	490	510	1	1017	40	24	
0	0	0	0	0	466	505	3	413	40	24	
1	0	0	0	0	461	504	1	0	40	24	
2	0	0	0	0	479	504	2	0	40	24	
3	0	0	0	0	504	504	1	0	40	24	
4	0	0	0	0	563	507	3	0	40	24	
5	0	0	0	0	591	508	1	0	40	24	
6	0	0	0	0	551	510	3	0	40	24	
7	0	0	0	0	521	513	1	519	40	24	
8	0	0	0	0	480	514	3	1019	40	24	
9	0	0	0	0	443	513	3	1018	40	24	
10	0	0	0	0	427	515	1	1018	40	24	
11	0	0	0	0	427	514	2	1018	40	24	
12	0	0	0	0	465	514	4	1019	40	24	
13	0	0	0	0	464	513	3	1018	40	24	
14	0	0	0	0	460	512	1	1018	40	24	
15	0	0	0	0	495	511	2	618	40	24	
0	0	0	0	0	544	510	3	191	40	24	
1	0	0	0	0	569	508	2	0	40	24	
2	0	0	0	0	573	507	1	0	40	24	
3	0	0	0	0	563	506	2	0	40	24	
4	0	0	0	0	543	507	2	0	40	24	
5	0	0	0	0	536	508	0	0	40	24	
6	0	0	0	0	515	513	3	0	40	24	
7	0	0	0	0	492	514	0	0	40	24	
8	0	0	0	0	495	515	2	301	40	24	
9	0	0	0	0	508	514	1	1016	40	24	
10	0	0	0	0	534	515	3	1018	40	24	
11	0	0	0	0	518	515	1	1018	40	24	
12	0	0	0	0	508	512	3	1019	40	24	
13	0	0	0	0	508	512	3	1018	40	24	
14	0	0	0	0	521	512	3	1018	40	24	
15	0	0	0	0	539	511	1	1018	40	24	
0	0	0	0	0	537	510	1	624	40	24	
1	0	0	0	0	531	508	3	223	40	24	
2	0	0	0	0	531	507	1	0	40	24	
3	0	0	0	0	536	506	2	0	40	24	
4	0	0	0	0	537	506	1	0	40	24	
5	0	0	0	0	532	507	3	0	40	24	
6	0	0	0	0	511	509	0	0	40	24	
7	0	0	0	0	497	512	2	0	40	24	
8	0	0	0	0	511	511	3	0	40	24	
9	0	0	0	0	519	511	3	970	40	24	
10	0	0	0	0	518	512	0	1018	40	24	
11	0	0	0	0	516	512	3	1018	40	24	
12	0	0	0	0	504	511	3	1018	40	24	
13	0	0	0	0	495	511	2	1018	40	24	
14	0	0	0	0	473	512	0	1018	40	24	
15	0	0	0	0	480	512	2	1017	40	24	
0	0	0	0	0	469	510	3	732	40	24	
1	0	0	0	0	449	508	2	336	40	24	
2	0	0	0	0	467	506	0	0	40	24	
3	0	0	0	0	483	505	2	0	40	24	
4	0	0	0	0	522	505	1	0	40	24	
5	0	0	0	0	532	506	2	0	40	24	
6	0	0	0	0	536	509	1	0	40	24	
7	0	0	0	0	533	510	2	0	40	24	
8	0	0	0	0	527	511	1	0	40	24	
9	0	0	0	0	527	512	3	0	40	24	
10	0	0	0	0	527	514	1	941	40	24	
11	0	0	0	0	530	514	2	1018	40	24	
12	0	0	0	0	541	512	3	1019	40	24	
13	0	0	0	0	539	513	2	1018	40	24	
14	0	0	0	0	529	515	1	1018	40	24	
15	0	0	0	0	525	513	2	809	40	24	
0	0	0	0	0	527	512	2	527	40	24	
1	0	0	0	0	530	511	3	264	40	24	
2	0	0	0	0	523	509	1	0	40	24	
3	0	0	0	0	522	507	2	0	40	24	
4	0	0	0	0	528	503	1	0	40	24	
5	0	0	0	0	521	502	2	0	40	24	
6	0	0	0	0	508	505	1	0	40	24	
7	0	0	0	0	492	507	2	0	40	24	
8	0	0	0	0	478	510	2	0	40	24	
9	0	0	0	0	476	511	3	0	40	24	
10	0	0	0	0	438	512	2	1018	40	24	
11	0	0	0	0	458	512	2	1018	40	24	
12	0	0	0	0	500	512	2	1019	40	24	
13	0	0	0	0	532	509	3	1018	40	24	
14	0	0	0	0	543	509	1	1018	40	24	
15	0	0	0	0	532	511	2	1018	40	24	
0	0	0	0	0	543	512	2	1019	40	24	
1	0	0	0	0	551	510	1	1018	40	24	
2	0	0	0	0	552	510	2	1018	40	24	
3	0	0	0	0	549	507	0	446	40	24	
4	0	0	0	0	542	504	2	0	40	24	
5	0	0	0	0	544	502	0	0	40	24	
6	0	0	0	0	529	504	2	0	40	24	
7	0	0	0	0	508	507	0	0	40	24	
8	0	0	0	0	498	511	3	0	40	24	
9	0	0	0	0	478	512	1	0	40	24	
10	0	0	0	0	452	513	3	500	40	24	
11	0	0	0	0	423	516	1	1018	40	24	
12	0	0	0	0	432	519	3	1019	40	24	
13	0	0	0	0	467	516	1	1019	40	24	
14	0	0	0	0	491	517	3	1018	40	24	
15	0	0	0	0	487	515	1	1018	40	24	
0	0	0	0	0	500	515	3	1019	40	24	
1	0	0	0	0	514	515	0	1018	40	24	
2	0	0	0	0	542	512	3	1018	40	24	
3	0	0	0	0	539	509	0	1017	40	24	
4	0	0	0	0	525	507	3	413	40	24	
5	0	0	0	0	538	504	2	0	40	24	
6	0	0	0	0	542	504	1	0	40	24	
7	0	0	0	0	529	505	2	0	40	24	
8	0	0	0	0	519	509	3	0	40	24	
9	0	0	0	0	526	509	2	0	40	24	
10	0	0	0	0	518	510	1	0	40	24	
11	0	0	0	0	520	515	2	610	40	24	
12	0	0	0	0	514	514	3	1019	40	24	
13	0	0	0	0	521	512	3	1018	40	24	
14	0	0	0	0	519	512	1	1018	40	24	
15	0	0	0	0	509	511	2	1018	40	24	
0	0	0	0	0	515	514	3	1019	40	24	
1	0	0	0	0	518	513	3	1018	40	24	
2	0	0	0	0	523	514	2	1018	40	24	
3	0	0	0	0	509	510	2	1018	40	24	
4	0	0	0	0	521	507	1	411	40	24	
5	0	0	0	0	533	504	1	0	40	24	
6	0	0	0	0	540	502	1	0	40	24	
7	0	0	0	0	535	503	1	0	40	24	
8	0	0	0	0	523	504	2	0	40	24	
9	0	0	0	0	511	508	0	0	40	24	
10	0	0	0	0	515	509	3	0	40	24	
11	0	0	0	0	515	511	0	0	40	24	
12	0	0	0	0	508	512	2	872	40	24	
13	0	0	0	0	509	513	1	1018	40	24	
14	0	0	0	0	507	512	2	1018	40	24	
15	0	0	0	0	511	512	0	1018	40	24	
0	0	0	0	0	512	510	2	1018	40	24	
1	0	0	0	0	480	510	2	1018	40	24	
2	0	0	0	0	478	509	2	1018	40	24	
3	0	0	0	0	494	507	1	793	40	24	
4	0	0	0	0	505	504	3	398	40	24	
5	0	0	0	0	525	502	1	0	40	24	
6	0	0	0	0	536	501	3	0	40	24	
7	0	0	0	0	508	500	1	0	40	24	
8	0	0	0	0	486	500	1	0	40	24	
9	0	0	0	0	487	503	1	0	40	24	
10	0	0	0	0	504	507	2	0	40	24	
11	0	0	0	0	511	511	1	0	40	24	
12	0	0	0	0	506	514	1	0	40	24	
13	0	0	0	0	507	513	3	709	40	24	
14	0	0	0	0	515	514	0	1018	40	24	
15	0	0	0	0	527	514	2	1018	40	24	
0	0	0	0	0	531	514	3	1019	40	24	
1	0	0	0	0	541	515	3	1018	40	24	
2	0	0	0	0	553	515	1	1018	40	24	
3	0	0	0	0	554	513	2	1018	40	24	
4	0	0	0	0	548	511	1	722	40	24	
5	0	0	0	0	531	508	0	297	40	24	
6	0	0	0	0	513	505	3	0	40	24	
7	0	0	0	0	504	504	0	0	40	24	
8	0	0	0	0	479	502	1	0	40	24	
9	0	0	0	0	452	504	1	0	40	24	
10	0	0	0	0	477	507	3	0	40	24	
11	0	0	0	0	511	508	2	0	40	24	
12	0	0	0	0	505	512	3	0	40	24	
13	0	0	0	0	504	515	3	0	40	24	
14	0	0	0	0	505	513	1	822	40	24	
15	0	0	0	0	508	515	3	1018	40	24	
0	0	0	0	0	524	512	1	1019	40	24	
1	0	0	0	0	523	510	3	1018	40	24	
2	0	0	0	0	505	510	2	1018	40	24	
3	0	0	0	0	477	511	2	724	40	24	
4	0	0	0	0	495	513	2	431	40	24	
5	0	0	0	0	523	512	0	111	40	24	
6	0	0	0	0	534	510	2	0	40	24	
7	0	0	0	0	526	510	0	0	40	24	
8	0	0	0	0	523	507	2	0	40	24	
9	0	0	0	0	521	505	0	0	40	24	
10	0	0	0	0	525	506	2	0	40	24	
11	0	0	0	0	524	509	0	0	40	24	
12	0	0	0	0	516	512	3	0	40	24	
13	0	0	0	0	512	511	1	0	40	24	
14	0	0	0	0	515	515	3	1018	40	24	
15	0	0	0	0	518	513	1	1018	40	24	
0	0	0	0	0	516	512	2	1018	40	24	
1	0	0	0	0	525	511	1	1018	40	24	
2	0	0	0	0	531	511	2	1018	40	24	
3	0	0	0	0	523	515	1	1018	40	24	
4	0	0	0	0	530	512	2	1019	40	24	
5	0	0	0	0	530	510	1	1018	40	24	
6	0	0	0	0	523	512	2	857	40	24	
7	0	0	0	0	530	510	0	295	40	24	
8	0	0	0	0	519	507	2	0	40	24	
9	0	0	0	0	530	505	1	0	40	24	
10	0	0	0	0	510	506	2	0	40	24	
11	0	0	0	0	487	508	0	0	40	24	
12	0	0	0	0	483	509	4	0	40	24	
13	0	0	0	0	471	510	2	0	40	24	
14	0	0	0	0	480	512	2	0	40	24	
15	0	0	0	0	450	512	1	772	40	24	
0	0	0	0	0	428	512	2	1018	40	24	
1	0	0	0	0	465	510	1	1018	40	24	
2	0	0	0	0	502	510	3	1018	40	24	
3	0	0	0	0	515	513	1	1018	40	24	
4	0	0	0	0	526	513	3	1019	40	24	
5	0	0	0	0	531	512	2	1018	40	24	
6	0	0	0	0	549	510	3	643	40	24	
7	0	0	0	0	559	510	1	294	40	24	
8	0	0	0	0	578	508	3	0	40	24	
9	0	0	0	0	577	504	1	0	40	24	
10	0	0	0	0	575	503	2	0	40	24	
11	0	0	0	0	554	504	1	0	40	24	
12	0	0	0	0	528	507	3	0	40	24	
13	0	0	0	0	487	507	3	0	40	24	
14	0	0	0	0	450	509	1	0	40	24	
15	0	0	0	0	419	511	2	720	40	24	
0	0	0	0	0	423	512	3	1019	40	24	
1	0	0	0	0	440	512	3	1018	40	24	
2	0	0	0	0	491	510	1	1018	40	24	
3	0	0	0	0	513	510	2	1018	40	24	
4	0	0	0	0	534	513	4	1019	40	24	
5	0	0	0	0	543	513	3	1018	40	24	
6	0	0	0	0	550	511	2	1018	40	24	
7	0	0	0	0	551	509	2	826	40	24	
8	0	0	0	0	548	507	1	341	40	24	
9	0	0	0	0	551	508	2	0	40	24	
10	0	0	0	0	551	507	2	0	40	24	
11	0	0	0	0	544	505	1	0	40	24	
12	0	0	0	0	525	505	3	0	40	24	
13	0	0	0	0	511	506	1	0	40	24	
14	0	0	0	0	497	510	2	0	40	24	
15	0	0	0	0	503	511	1	0	40	24	
0	0	0	0	0	496	514	3	843	40	24	
1	0	0	0	0	479	513	2	1018	40	24	
2	0	0	0	0	500	512	3	1018	40	24	
3	0	0	0	0	505	511	1	1018	40	24	
4	0	0	0	0	518	509	3	1019	40	24	
5	0	0	0	0	519	511	3	1018	40	24	
6	0	0	0	0	518	511	3	1018	40	24	
7	0	0	0	0	504	510	1	1018	40	24	
8	0	0	0	0	514	508	1	564	40	24	
9	0	0	0	0	525	508	2	121	40	24	
10	0	0	0	0	518	505	3	0	40	24	
11	0	0	0	0	504	504	1	0	40	24	
12	0	0	0	0	508	504	3	0	40	24	
13	0	0	0	0	513	507	3	0	40	24	
14	0	0	0	0	504	510	1	0	40	24	
15	0	0	0	0	490	513	3	0	40	24	
0	0	0	0	0	493	515	3	0	40	24	
1	0	0	0	0	507	513	3	1016	40	24	
2	0	0	0	0	518	514	1	1018	40	24	
3	0	0	0	0	520	512	3	1018	40	24	
4	0	0	0	0	522	511	3	1019	40	24	
5	0	0	0	0	519	509	3	1018	40	24	
6	0	0	0	0	519	509	0	1018	40	24	
7	0	0	0	0	520	512	2	1018	40	24	
8	0	0	0	0	518	511	3	1019	40	24	
9	0	0	0	0	516	510	3	534	40	24	
10	0	0	0	0	517	507	1	70	40	24	
11	0	0	0	0	521	507	2	0	40	24	
12	0	0	0	0	525	507	3	0	40	24	
13	0	0	0	0	522	507	0	0	40	24	
14	0	0	0	0	522	508	3	0	40	24	
15	0	0	0	0	526	511	0	0	40	24	
0	0	0	0	0	526	512	1	0	40	24	
1	0	0	0	0	520	514	2	644	40	24	
2	0	0	0	0	519	515	3	1018	40	24	
3	0	0	0	0	505	516	2	1018	40	24	
4	0	0	0	0	494	515	3	1019	40	24	
5	0	0	0	0	489	513	2	1018	40	24	
6	0	0	0	0	484	514	1	1018	40	24	
7	0	0	0	0	457	515	2	1018	40	24	
8	0	0	0	0	470	512	3	1018	40	24	
9	0	0	0	0	508	511	1	643	40	24	
10	0	0	0	0	527	510	1	197	40	24	
11	0	0	0	0	545	510	0	0	40	24	
12	0	0	0	0	540	508	2	0	40	24	
13	0	0	0	0	530	507	1	0	40	24	
14	0	0	0	0	525	508	2	0	40	24	
15	0	0	0	0	523	511	0	0	40	24	
0	0	0	0	0	516	514	3	0	40	24	
1	0	0	0	0	504	513	0	0	40	24	
2	0	0	0	0	509	513	3	622	40	24	
3	0	0	0	0	506	513	0	1018	40	24	
4	0	0	0	0	502	510	3	1018	40	24	
5	0	0	0	0	501	510	1	1018	40	24	
6	0	0	0	0	512	512	3	1018	40	24	
7	0	0	0	0	517	513	0	1018	40	24	
8	0	0	0	0	516	513	4	1019	40	24	
9	0	0	0	0	510	509	1	1018	40	24	
10	0	0	0	0	523	508	2	857	40	24	
11	0	0	0	0	529	505	1	348	40	24	
12	0	0	0	0	529	501	2	0	40	24	
13	0	0	0	0	523	500	2	0	40	24	
14	0	0	0	0	531	502	2	0	40	24	
15	0	0	0	0	521	505	2	0	40	24	
0	0	0	0	0	501	507	3	0	40	24	
1	0	0	0	0	512	511	3	0	40	24	
2	0	0	0	0	504	511	0	411	40	24	
3	0	0	0	0	483	511	2	1018	40	24	
4	0	0	0	0	495	512	3	1018	40	24	
5	0	0	0	0	519	512	3	1018	40	24	
6	0	0	0	0	540	513	2	1018	40	24	
7	0	0	0	0	563	514	0	1018	40	24	
8	0	0	0	0	562	515	2	1019	40	24	
9	0	0	0	0	521	511	0	1018	40	24	
10	0	0	0	0	516	511	3	1018	40	24	
11	0	0	0	0	498	510	0	430	40	24	
12	0	0	0	0	471	508	3	0	40	24	
13	0	0	0	0	453	505	0	0	40	24	
14	0	0	0	0	453	506	2	0	40	24	
15	0	0	0	0	488	508	0	0	40	24	
0	0	0	0	0	468	510	4	0	40	24	
1	0	0	0	0	463	512	1	0	40	24	
2	0	0	0	0	505	513	2	0	40	24	
3	0	0	0	0	532	516	1	809	40	24	
4	0	0	0	0	540	516	3	1018	40	24	
5	0	0	0	0	534	517	1	1018	40	24	
6	0	0	0	0	530	516	3	1018	40	24	
7	0	0	0	0	521	516	0	1018	40	24	
8	0	0	0	0	511	516	2	1019	40	24	
9	0	0	0	0	519	514	1	1018	40	24	
10	0	0	0	0	528	513	3	1018	40	24	
11	0	0	0	0	531	510	0	559	40	24	
12	0	0	0	0	537	506	2	49	40	24	
13	0	0	0	0	529	506	0	0	40	24	
14	0	0	0	0	520	507	2	0	40	24	
15	0	0	0	0	522	508	0	0	40	24	
0	0	0	0	0	526	509	4	0	40	24	
1	0	0	0	0	508	510	1	0	40	24	
2	0	0	0	0	489	513	2	0	40	24	
3	0	0	0	0	503	513	1	0	40	24	
4	0	0	0	0	515	514	4	585	40	24	
5	0	0	0	0	511	513	1	1018	40	24	
6	0	0	0	0	513	514	3	1018	40	24	
7	0	0	0	0	522	515	1	1018	40	24	
8	0	0	0	0	516	515	3	1019	40	24	
9	0	0	0	0	511	513	2	1018	40	24	
10	0	0	0	0	520	512	3	1018	40	24	
11	0	0	0	0	528	511	1	759	40	24	
12	0	0	0	0	530	509	1	336	40	24	
13	0	0	0	0	522	508	1	0	40	24	
14	0	0	0	0	503	507	2	0	40	24	
15	0	0	0	0	500	504	1	0	40	24	
0	0	0	0	0	518	504	1	0	40	24	
1	0	0	0	0	520	505	2	0	40	24	
2	0	0	0	0	513	508	3	0	40	24	
3	0	0	0	0	505	512	1	0	40	24	
4	0	0	0	0	484	513	3	0	40	24	
5	0	0	0	0	484	513	3	1018	40	24	
6	0	0	0	0	485	514	3	1018	40	24	
7	0	0	0	0	499	512	1	1018	40	24	
8	0	0	0	0	513	511	3	1018	40	24	
9	0	0	0	0	517	511	3	1018	40	24	
10	0	0	0	0	526	513	2	1018	40	24	
11	0	0	0	0	547	512	2	1017	40	24	
12	0	0	0	0	558	508	3	553	40	24	
13	0	0	0	0	551	505	2	100	40	24	
14	0	0	0	0	547	503	1	0	40	24	
15	0	0	0	0	546	502	2	0	40	24	
0	0	0	0	0	533	503	3	0	40	24	
1	0	0	0	0	498	503	2	0	40	24	
2	0	0	0	0	467	505	0	0	40	24	
3	0	0	0	0	435	509	3	0	40	24	
4	0	0	0	0	451	511	3	0	40	24	
5	0	0	0	0	478	511	2	0	40	24	
6	0	0	0	0	482	514	1	989	40	24	
7	0	0	0	0	495	515	3	1018	40	24	
8	0	0	0	0	512	512	3	1018	40	24	
9	0	0	0	0	528	511	2	1018	40	24	
10	0	0	0	0	534	512	1	1018	40	24	
11	0	0	0	0	532	513	2	1018	40	24	
12	0	0	0	0	536	511	3	810	40	24	
13	0	0	0	0	525	510	2	398	40	24	
14	0	0	0	0	521	508	0	0	40	24	
15	0	0	0	0	515	509	2	0	40	24	
0	0	0	0	0	501	506	3	0	40	24	
1	0	0	0	0	503	504	2	0	40	24	
2	0	0	0	0	519	507	1	0	40	24	
3	0	0	0	0	527	510	2	0	40	24	
4	0	0	0	0	525	511	3	0	40	24	
5	0	0	0	0	525	513	3	0	40	24	
6	0	0	0	0	511	512	1	896	40	24	
7	0	0	0	0	506	514	3	1018	40	24	
8	0	0	0	0	505	513	2	1018	40	24	
9	0	0	0	0	520	511	1	1018	40	24	
10	0	0	0	0	516	512	2	1018	40	24	
11	0	0	0	0	500	512	2	1018	40	24	
12	0	0	0	0	503	511	3	1018	40	24	
13	0	0	0	0	510	508	1	1018	40	24	
14	0	0	0	0	520	508	3	497	40	24	
15	0	0	0	0	525	505	0	38	40	24	
0	0	0	0	0	526	504	1	0	40	24	
1	0	0	0	0	518	503	0	0	40	24	
2	0	0	0	0	514	503	2	0	40	24	
3	0	0	0	0	508	506	0	0	40	24	
4	0	0	0	0	511	507	2	0	40	24	
5	0	0	0	0	518	510	1	0	40	24	
6	0	0	0	0	522	511	2	0	40	24	
7	0	0	0	0	519	510	1	931	40	24	
8	0	0	0	0	518	511	2	1018	40	24	
9	0	0	0	0	514	510	1	1018	40	24	
10	0	0	0	0	507	510	3	1018	40	24	
11	0	0	0	0	504	510	1	1018	40	24	
12	0	0	0	0	502	509	3	1019	40	24	
13	0	0	0	0	511	508	2	1018	40	24	
14	0	0	0	0	519	508	3	1018	40	24	
15	0	0	0	0	519	507	1	398	40	24	
0	0	0	0	0	537	505	3	0	40	24	
1	0	0	0	0	544	501	2	0	40	24	
2	0	0	0	0	535	500	2	0	40	24	
3	0	0	0	0	517	504	2	0	40	24	
4	0	0	0	0	491	505	1	0	40	24	
5	0	0	0	0	479	507	3	0	40	24	
6	0	0	0	0	467	511	1	0	40	24	
7	0	0	0	0	475	515	3	632	40	24	
8	0	0	0	0	511	515	3	1019	40	24	
9	0	0	0	0	531	516	3	1018	40	24	
10	0	0	0	0	527	515	0	1018	40	24	
11	0	0	0	0	524	514	2	1018	40	24	
12	0	0	0	0	507	515	3	1019	40	24	
13	0	0	0	0	505	514	2	1018	40	24	
14	0	0	0	0	509	513	1	863	40	24	
15	0	0	0	0	497	512	2	448	40	24	
0	0	0	0	0	478	508	1	20	40	24	
1	0	0	0	0	506	506	2	0	40	24	
2	0	0	0	0	530	505	1	0	40	24	
3	0	0	0	0	528	504	2	0	40	24	
4	0	0	0	0	523	506	2	0	40	24	
5	0	0	0	0	518	508	2	0	40	24	
6	0	0	0	0	542	511	1	0	40	24	
7	0	0	0	0	552	515	2	0	40	24	
8	0	0	0	0	544	515	3	889	40	24	
9	0	0	0	0	513	513	1	1018	40	24	
10	0	0	0	0	488	514	3	1018	40	24	
11	0	0	0	0	493	514	1	1018	40	24	
12	0	0	0	0	490	515	3	1019	40	24	
13	0	0	0	0	478	514	0	1018	40	24	
14	0	0	0	0	502	514	3	1018	40	24	
15	0	0	0	0	516	511	0	734	40	24	
0	0	0	0	0	521	511	3	297	40	24	
1	0	0	0	0	521	505	2	0	40	24	
2	0	0	0	0	523	505	0	0	40	24	
3	0	0	0	0	514	504	2	0	40	24	
4	0	0	0	0	496	504	3	0	40	24	
5	0	0	0	0	516	508	2	0	40	24	
6	0	0	0	0	522	509	2	0	40	24	
7	0	0	0	0	516	512	0	0	40	24	
8	0	0	0	0	504	514	3	0	40	24	
9	0	0	0	0	501	513	1	874	40	24	
10	0	0	0	0	512	516	2	1018	40	24	
11	0	0	0	0	520	516	1	1018	40	24	
12	0	0	0	0	504	512	3	1018	40	24	
13	0	0	0	0	504	512	1	1018	40	24	
14	0	0	0	0	510	512	3	1018	40	24	
15	0	0	0	0	519	511	2	796	40	24	
0	0	0	0	0	523	508	2	505	40	24	
1	0	0	0	0	519	505	3	148	40	24	
2	0	0	0	0	528	505	0	0	40	24	
3	0	0	0	0	523	504	2	0	40	24	
4	0	0	0	0	524	504	3	0	40	24	
5	0	0	0	0	523	505	0	0	40	24	
6	0	0	0	0	511	508	3	0	40	24	
7	0	0	0	0	511	511	0	0	40	24	
8	0	0	0	0	516	513	4	0	40	24	
9	0	0	0	0	515	514	1	691	40	24	
10	0	0	0	0	509	515	3	1018	40	24	
11	0	0	0	0	509	514	2	1018	40	24	
12	0	0	0	0	519	512	4	1019	40	24	
13	0	0	0	0	516	511	2	1018	40	24	
14	0	0	0	0	499	512	1	1018	40	24	
15	0	0	0	0	499	513	2	1018	40	24	
0	0	0	0	0	508	511	3	1019	40	24	
1	0	0	0	0	514	510	2	1018	40	24	
2	0	0	0	0	514	508	1	426	40	24	
3	0	0	0	0	502	507	2	0	40	24	
4	0	0	0	0	506	502	3	0	40	24	
5	0	0	0	0	514	503	3	0	40	24	
6	0	0	0	0	524	504	1	0	40	24	
7	0	0	0	0	520	505	2	0	40	24	
8	0	0	0	0	516	509	2	0	40	24	
9	0	0	0	0	517	510	3	0	40	24	
10	0	0	0	0	505	510	3	1018	40	24	
11	0	0	0	0	504	511	2	1018	40	24	
12	0	0	0	0	499	512	2	1019	40	24	
13	0	0	0	0	503	510	1	1018	40	24	
14	0	0	0	0	513	511	2	1018	40	24	
15	0	0	0	0	518	512	1	1018	40	24	
0	0	0	0	0	524	511	3	1019	40	24	
1	0	0	0	0	524	507	0	1018	40	24	
2	0	0	0	0	529	506	3	1018	40	24	
3	0	0	0	0	529	503	1	384	40	24	
4	0	0	0	0	523	502	3	0	40	24	
5	0	0	0	0	518	500	0	0	40	24	
6	0	0	0	0	499	500	2	0	40	24	
7	0	0	0	0	493	504	0	0	40	24	
8	0	0	0	0	513	505	2	0	40	24	
9	0	0	0	0	518	509	1	0	40	24	
10	0	0	0	0	511	513	3	560	40	24	
11	0	0	0	0	519	513	1	1018	40	24	
12	0	0	0	0	517	513	2	1018	40	24	
13	0	0	0	0	503	513	1	1018	40	24	
14	0	0	0	0	483	513	3	1018	40	24	
15	0	0	0	0	468	513	1	1018	40	24	
0	0	0	0	0	487	512	3	1019	40	24	
1	0	0	0	0	513	510	2	1018	40	24	
2	0	0	0	0	544	510	2	660	40	24	
3	0	0	0	0	551	510	1	255	40	24	
4	0	0	0	0	553	507	3	0	40	24	
5	0	0	0	0	543	504	2	0	40	24	
6	0	0	0	0	528	503	1	0	40	24	
7	0	0	0	0	511	508	2	0	40	24	
8	0	0	0	0	496	509	1	0	40	24	
9	0	0	0	0	476	510	3	0	40	24	
10	0	0	0	0	452	512	1	0	40	24	
11	0	0	0	0	488	512	3	792	40	24	
12	0	0	0	0	516	511	2	1019	40	24	
13	0	0	0	0	513	512	3	1018	40	24	
14	0	0	0	0	520	512	0	1018	40	24	
15	0	0	0	0	522	511	2	1018	40	24	
0	0	0	0	0	519	512	3	1019	40	24	
1	0	0	0	0	523	513	2	1018	40	24	
2	0	0	0	0	524	513	1	1018	40	24	
3	0	0	0	0	523	513	2	643	40	24	
4	0	0	0	0	523	510	3	145	40	24	
5	0	0	0	0	522	508	2	0	40	24	
6	0	0	0	0	520	505	1	0	40	24	
7	0	0	0	0	517	506	2	0	40	24	
8	0	0	0	0	508	507	3	0	40	24	
9	0	0	0	0	510	508	1	0	40	24	
10	0	0	0	0	522	510	2	0	40	24	
11	0	0	0	0	520	513	0	0	40	24	
12	0	0	0	0	514	514	2	824	40	24	
13	0	0	0	0	513	514	1	1018	40	24	
14	0	0	0	0	517	512	3	1018	40	24	
15	0	0	0	0	518	510	1	1018	40	24	
0	0	0	0	0	511	509	1	1019	40	24	
1	0	0	0	0	507	511	1	1018	40	24	
2	0	0	0	0	499	510	3	836	40	24	
3	0	0	0	0	494	510	0	449	40	24	
4	0	0	0	0	503	509	4	43	40	24	
5	0	0	0	0	510	505	1	0	40	24	
6	0	0	0	0	515	505	2	0	40	24	
7	0	0	0	0	519	503	0	0	40	24	
8	0	0	0	0	518	503	3	0	40	24	
9	0	0	0	0	512	506	1	0	40	24	
10	0	0	0	0	511	507	3	0	40	24	
11	0	0	0	0	513	510	1	0	40	24	
12	0	0	0	0	516	510	1	0	40	24	
13	0	0	0	0	535	512	2	980	40	24	
14	0	0	0	0	556	515	3	1018	40	24	
15	0	0	0	0	549	512	2	1018	40	24	
0	0	0	0	0	530	510	3	1018	40	24	
1	0	0	0	0	514	509	3	1018	40	24	
2	0	0	0	0	499	510	1	1018	40	24	
3	0	0	0	0	487	509	3	1017	40	24	
4	0	0	0	0	472	509	3	673	40	24	
5	0	0	0	0	458	509	3	251	40	24	
6	0	0	0	0	476	506	0	0	40	24	
7	0	0	0	0	484	505	2	0	40	24	
8	0	0	0	0	493	504	2	0	40	24	
9	0	0	0	0	507	505	2	0	40	24	
10	0	0	0	0	527	507	1	0	40	24	
11	0	0	0	0	536	509	2	0	40	24	
12	0	0	0	0	527	511	2	0	40	24	
13	0	0	0	0	519	512	3	794	40	24	
14	0	0	0	0	517	512	2	1018	40	24	
15	0	0	0	0	517	512	2	1018	40	24	
0	0	0	0	0	513	507	2	1019	40	24	
1	0	0	0	0	508	508	1	1018	40	24	
2	0	0	0	0	514	510	2	1018	40	24	
3	0	0	0	0	500	512	1	1018	40	24	
4	0	0	0	0	508	511	3	1019	40	24	
5	0	0	0	0	521	510	0	768	40	24	
6	0	0	0	0	524	509	2	300	40	24	
7	0	0	0	0	521	508	0	0	40	24	
8	0	0	0	0	521	505	3	0	40	24	
9	0	0	0	0	520	506	0	0	40	24	
10	0	0	0	0	515	507	2	0	40	24	
11	0	0	0	0	518	509	0	0	40	24	
12	0	0	0	0	518	511	3	0	40	24	
13	0	0	0	0	514	513	1	0	40	24	
14	0	0	0	0	515	516	3	759	40	24	
15	0	0	0	0	515	515	0	1018	40	24	
0	0	0	0	0	521	514	4	1019	40	24	
1	0	0	0	0	526	511	1	1018	40	24	
2	0	0	0	0	525	512	3	1018	40	24	
3	0	0	0	0	517	513	1	1018	40	24	
4	0	0	0	0	504	510	1	1018	40	24	
5	0	0	0	0	507	509	1	1018	40	24	
6	0	0	0	0	499	509	2	472	40	24	
7	0	0	0	0	487	508	1	4	40	24	
8	0	0	0	0	479	506	1	0	40	24	
9	0	0	0	0	499	503	2	0	40	24	
10	0	0	0	0	508	506	2	0	40	24	
11	0	0	0	0	514	508	1	0	40	24	
12	0	0	0	0	517	509	1	0	40	24	
13	0	0	0	0	514	512	3	0	40	24	
14	0	0	0	0	513	514	1	0	40	24	
15	0	0	0	0	513	513	3	1018	40	24	
0	0	0	0	0	516	513	2	1018	40	24	
1	0	0	0	0	521	512	3	1018	40	24	
2	0	0	0	0	518	514	1	1018	40	24	
3	0	0	0	0	518	518	2	1018	40	24	
4	0	0	0	0	522	517	3	1019	40	24	
5	0	0	0	0	544	515	2	1018	40	24	
6	0	0	0	0	543	514	0	653	40	24	
7	0	0	0	0	534	513	2	245	40	24	
8	0	0	0	0	517	509	1	0	40	24	
9	0	0	0	0	508	507	2	0	40	24	
10	0	0	0	0	495	507	0	0	40	24	
11	0	0	0	0	477	508	2	0	40	24	
12	0	0	0	0	482	510	2	0	40	24	
13	0	0	0	0	502	511	3	0	40	24	
14	0	0	0	0	501	514	1	0	40	24	
15	0	0	0	0	501	518	2	1017	40	24	
0	0	0	0	0	515	519	2	1019	40	24	
1	0	0	0	0	524	516	3	1018	40	24	
2	0	0	0	0	527	516	1	1018	40	24	
3	0	0	0	0	523	516	2	1018	40	24	
4	0	0	0	0	510	518	2	1019	40	24	
5	0	0	0	0	512	513	3	1018	40	24	
6	0	0	0	0	510	511	2	1018	40	24	
7	0	0	0	0	507	510	2	1018	40	24	
8	0	0	0	0	503	505	3	412	40	24	
9	0	0	0	0	513	505	2	0	40	24	
10	0	0	0	0	518	505	1	0	40	24	
11	0	0	0	0	522	506	2	0	40	24	
12	0	0	0	0	516	508	2	0	40	24	
13	0	0	0	0	515	508	1	0	40	24	
14	0	0	0	0	515	512	2	0	40	24	
15	0	0	0	0	520	515	0	0	40	24	
0	0	0	0	0	518	515	3	623	40	24	
1	0	0	0	0	516	514	1	1018	40	24	
2	0	0	0	0	514	514	3	1018	40	24	
3	0	0	0	0	518	515	0	1018	40	24	
4	0	0	0	0	515	512	3	1019	40	24	
5	0	0	0	0	507	513	0	1018	40	24	
6	0	0	0	0	489	512	3	733	40	24	
7	0	0	0	0	505	511	0	405	40	24	
8	0	0	0	0	509	507	2	28	40	24	
9	0	0	0	0	512	505	1	0	40	24	
10	0	0	0	0	513	504	2	0	40	24	
11	0	0	0	0	516	503	1	0	40	24	
12	0	0	0	0	511	503	3	0	40	24	
13	0	0	0	0	513	507	2	0	40	24	
14	0	0	0	0	520	510	0	0	40	24	
15	0	0	0	0	526	511	2	0	40	24	
0	0	0	0	0	516	510	1	0	40	24	
1	0	0	0	0	504	511	3	613	40	24	
2	0	0	0	0	514	512	1	1018	40	24	
3	0	0	0	0	521	511	2	1018	40	24	
4	0	0	0	0	524	511	3	1018	40	24	
5	0	0	0	0	513	511	1	1018	40	24	
6	0	0	0	0	500	512	2	888	40	24	
7	0	0	0	0	501	512	0	672	40	24	
8	0	0	0	0	504	510	3	394	40	24	
9	0	0	0	0	501	508	0	56	40	24	
10	0	0	0	0	514	505	2	0	40	24	
11	0	0	0	0	520	506	0	0	40	24	
12	0	0	0	0	509	505	3	0	40	24	
13	0	0	0	0	505	505	0	0	40	24	
14	0	0	0	0	513	509	3	0	40	24	
15	0	0	0	0	516	513	0	0	40	24	
0	0	0	0	0	514	514	2	0	40	24	
1	0	0	0	0	514	516	1	1018	40	24	
2	0	0	0	0	523	517	3	1018	40	24	
3	0	0	0	0	532	517	0	1018	40	24	
4	0	0	0	0	528	513	2	1018	40	24	
5	0	0	0	0	519	512	1	1018	40	24	
6	0	0	0	0	512	513	2	1018	40	24	
7	0	0	0	0	507	515	1	1018	40	24	
8	0	0	0	0	493	512	1	1019	40	24	
9	0	0	0	0	481	511	1	1018	40	24	
10	0	0	0	0	472	510	2	549	40	24	
11	0	0	0	0	493	508	1	2	40	24	
12	0	0	0	0	511	506	3	0	40	24	
13	0	0	0	0	519	505	2	0	40	24	
14	0	0	0	0	521	507	2	0	40	24	
15	0	0	0	0	516	510	1	0	40	24	
0	0	0	0	0	524	511	3	0	40	24	
1	0	0	0	0	547	512	3	0	40	24	
2	0	0	0	0	560	514	2	1018	40	24	
3	0	0	0	0	550	513	3	1018	40	24	
4	0	0	0	0	534	510	4	1019	40	24	
5	0	0	0	0	513	508	3	1018	40	24	
6	0	0	0	0	501	510	1	1018	40	24	
7	0	0	0	0	476	512	2	1018	40	24	
8	0	0	0	0	457	508	2	1018	40	24	
9	0	0	0	0	477	509	2	1018	40	24	
10	0	0	0	0	512	508	0	1018	40	24	
11	0	0	0	0	531	506	2	339	40	24	
12	0	0	0	0	533	503	2	0	40	24	
13	0	0	0	0	532	499	2	0	40	24	
14	0	0	0	0	522	500	0	0	40	24	
15	0	0	0	0	512	505	2	0	40	24	
0	0	0	0	0	491	507	2	0	40	24	
1	0	0	0	0	467	509	3	0	40	24	
2	0	0	0	0	457	511	1	316	40	24	
3	0	0	0	0	468	512	2	1018	40	24	
4	0	0	0	0	492	513	3	1019	40	24	
5	0	0	0	0	514	511	3	1018	40	24	
6	0	0	0	0	523	512	2	1018	40	24	
7	0	0	0	0	535	512	2	1018	40	24	
8	0	0	0	0	536	513	2	1019	40	24	
9	0	0	0	0	538	512	1	1018	40	24	
10	0	0	0	0	536	512	3	728	40	24	
11	0	0	0	0	533	511	0	288	40	24	
12	0	0	0	0	536	508	3	0	40	24	
13	0	0	0	0	535	504	0	0	40	24	
14	0	0	0	0	522	505	2	0	40	24	
15	0	0	0	0	514	508	0	0	40	24	
0	0	0	0	0	505	508	3	0	40	24	
1	0	0	0	0	496	509	0	0	40	24	
2	0	0	0	0	492	511	3	0	40	24	
3	0	0	0	0	502	513	1	972	40	24	
4	0	0	0	0	508	514	2	1019	40	24	
5	0	0	0	0	515	516	1	1018	40	24	
6	0	0	0	0	521	516	3	1018	40	24	
7	0	0	0	0	510	515	0	1018	40	24	
8	0	0	0	0	511	515	3	1019	40	24	
9	0	0	0	0	524	515	0	1018	40	24	
10	0	0	0	0	519	514	3	1018	40	24	
11	0	0	0	0	513	512	0	1018	40	24	
12	0	0	0	0	515	509	3	335	40	24	
13	0	0	0	0	513	508	0	0	40	24	
14	0	0	0	0	518	506	3	0	40	24	
15	0	0	0	0	502	506	0	0	40	24	
0	0	0	0	0	508	506	2	0	40	24	
1	0	0	0	0	518	508	0	0	40	24	
2	0	0	0	0	520	512	2	0	40	24	
3	0	0	0	0	515	515	0	0	40	24	
4	0	0	0	0	506	515	2	765	40	24	
5	0	0	0	0	498	515	1	1018	40	24	
6	0	0	0	0	495	515	3	1018	40	24	
7	0	0	0	0	487	513	1	1018	40	24	
8	0	0	0	0	488	511	3	1019	40	24	
9	0	0	0	0	501	511	2	1018	40	24	
10	0	0	0	0	516	510	2	1018	40	24	
11	0	0	0	0	517	509	0	615	40	24	
12	0	0	0	0	522	510	3	161	40	24	
13	0	0	0	0	525	507	2	0	40	24	
14	0	0	0	0	531	505	1	0	40	24	
15	0	0	0	0	534	506	2	0	40	24	
0	0	0	0	0	527	508	2	0	40	24	
1	0	0	0	0	512	509	0	0	40	24	
2	0	0	0	0	513	512	3	0	40	24	
3	0	0	0	0	507	515	0	0	40	24	
4	0	0	0	0	508	516	4	352	40	24	
5	0	0	0	0	512	514	1	1018	40	24	
6	0	0	0	0	519	514	3	1018	40	24	
7	0	0	0	0	520	514	1	1018	40	24	
8	0	0	0	0	510	512	3	1018	40	24	
9	0	0	0	0	503	513	2	1018	40	24	
10	0	0	0	0	501	512	3	1018	40	24	
11	0	0	0	0	511	512	1	1017	40	24	
12	0	0	0	0	514	508	3	622	40	24	
13	0	0	0	0	518	507	2	229	40	24	
14	0	0	0	0	523	505	2	0	40	24	
15	0	0	0	0	520	503	1	0	40	24	
0	0	0	0	0	522	504	1	0	40	24	
1	0	0	0	0	519	506	1	0	40	24	
2	0	0	0	0	507	509	2	0	40	24	
3	0	0	0	0	497	511	1	0	40	24	
4	0	0	0	0	500	513	3	0	40	24	
5	0	0	0	0	506	513	2	284	40	24	
6	0	0	0	0	506	514	3	1018	40	24	
7	0	0	0	0	519	514	1	1018	40	24	
8	0	0	0	0	532	514	3	1019	40	24	
9	0	0	0	0	527	512	3	1018	40	24	
10	0	0	0	0	518	513	0	1018	40	24	
11	0	0	0	0	513	511	2	846	40	24	
12	0	0	0	0	510	507	1	507	40	24	
13	0	0	0	0	500	508	3	135	40	24	
14	0	0	0	0	505	506	0	0	40	24	
15	0	0	0	0	546	505	2	0	40	24	
0	0	0	0	0	551	504	3	0	40	24	
1	0	0	0	0	538	503	3	0	40	24	
2	0	0	0	0	518	505	0	0	40	24	
3	0	0	0	0	496	507	2	0	40	24	
4	0	0	0	0	473	512	3	0	40	24	
5	0	0	0	0	456	514	3	0	40	24	
6	0	0	0	0	453	515	1	1018	40	24	
7	0	0	0	0	492	514	3	1018	40	24	
8	0	0	0	0	502	513	3	1019	40	24	
9	0	0	0	0	500	510	3	1018	40	24	
10	0	0	0	0	511	511	0	1018	40	24	
11	0	0	0	0	519	511	2	1018	40	24	
12	0	0	0	0	532	509	3	1019	40	24	
13	0	0	0	0	527	507	2	1018	40	24	
14	0	0	0	0	517	506	0	441	40	24	
15	0	0	0	0	526	505	2	0	40	24	
0	0	0	0	0	531	504	2	0	40	24	
1	0	0	0	0	536	501	2	0	40	24	
2	0	0	0	0	540	503	0	0	40	24	
3	0	0	0	0	531	508	2	0	40	24	
4	0	0	0	0	521	512	3	0	40	24	
5	0	0	0	0	502	514	3	0	40	24	
6	0	0	0	0	507	516	1	0	40	24	
7	0	0	0	0	489	515	2	953	40	24	
8	0	0	0	0	470	515	3	1018	40	24	
9	0	0	0	0	488	514	3	1018	40	24	
10	0	0	0	0	499	514	1	1018	40	24	
11	0	0	0	0	511	516	2	1018	40	24	
12	0	0	0	0	525	513	3	1018	40	24	
13	0	0	0	0	533	512	1	715	40	24	
14	0	0	0	0	538	511	3	350	40	24	
15	0	0	0	0	540	508	0	0	40	24	
0	0	0	0	0	542	506	3	0	40	24	
1	0	0	0	0	532	502	1	0	40	24	
2	0	0	0	0	523	504	1	0	40	24	
3	0	0	0	0	514	507	3	0	40	24	
4	0	0	0	0	491	510	3	0	40	24	
5	0	0	0	0	462	511	2	0	40	24	
6	0	0	0	0	475	512	1	0	40	24	
7	0	0	0	0	491	515	3	878	40	24	
8	0	0	0	0	504	515	3	1019	40	24	
9	0	0	0	0	518	513	1	1018	40	24	
10	0	0	0	0	532	512	3	1018	40	24	
11	0	0	0	0	530	512	0	1018	40	24	
12	0	0	0	0	526	512	3	1018	40	24	
13	0	0	0	0	523	510	0	1018	40	24	
14	0	0	0	0	524	509	3	1018	40	24	
15	0	0	0	0	525	505	0	813	40	24	
0	0	0	0	0	523	505	3	338	40	24	
1	0	0	0	0	518	503	0	0	40	24	
2	0	0	0	0	519	503	2	0	40	24	
3	0	0	0	0	523	504	0	0	40	24	
4	0	0	0	0	520	506	3	0	40	24	
5	0	0	0	0	521	508	1	0	40	24	
6	0	0	0	0	511	512	2	0	40	24	
7	0	0	0	0	505	513	0	0	40	24	
8	0	0	0	0	500	514	3	1001	40	24	
9	0	0	0	0	486	515	1	1018	40	24	
10	0	0	0	0	487	514	2	1018	40	24	
11	0	0	0	0	512	513	0	1018	40	24	
12	0	0	0	0	522	514	1	1019	40	24	
13	0	0	0	0	520	514	1	1018	40	24	
14	0	0	0	0	516	514	2	1018	40	24	
15	0	0	0	0	514	511	1	1017	40	24	
0	0	0	0	0	523	508	1	460	40	24	
1	0	0	0	0	527	507	1	16	40	24	
2	0	0	0	0	501	506	2	0	40	24	
3	0	0	0	0	495	505	1	0	40	24	
4	0	0	0	0	497	507	3	0	40	24	
5	0	0	0	0	505	510	3	0	40	24	
6	0	0	0	0	519	513	1	0	40	24	
7	0	0	0	0	527	515	3	0	40	24	
8	0	0	0	0	522	515	1	421	40	24	
9	0	0	0	0	519	514	3	1018	40	24	
10	0	0	0	0	516	516	0	1018	40	24	
11	0	0	0	0	515	515	3	1018	40	24	
12	0	0	0	0	494	513	3	1019	40	24	
13	0	0	0	0	504	513	2	1018	40	24	
14	0	0	0	0	516	512	0	1018	40	24	
15	0	0	0	0	510	513	2	1018	40	24	
0	0	0	0	0	508	512	2	718	40	24	
1	0	0	0	0	514	510	3	272	40	24	
2	0	0	0	0	512	510	1	0	40	24	
3	0	0	0	0	505	507	0	0	40	24	
4	0	0	0	0	503	505	3	0	40	24	
5	0	0	0	0	512	507	1	0	40	24	
6	0	0	0	0	522	508	3	0	40	24	
7	0	0	0	0	509	509	0	0	40	24	
8	0	0	0	0	509	512	3	0	40	24	
9	0	0	0	0	512	513	3	773	40	24	
10	0	0	0	0	522	514	1	1018	40	24	
11	0	0	0	0	525	514	3	1018	40	24	
12	0	0	0	0	521	513	3	1019	40	24	
13	0	0	0	0	510	513	2	1018	40	24	
14	0	0	0	0	521	513	1	1018	40	24	
15	0	0	0	0	539	513	2	1018	40	24	
0	0	0	0	0	545	513	2	1019	40	24	
1	0	0	0	0	541	511	2	580	40	24	
2	0	0	0	0	537	508	1	121	40	24	
3	0	0	0	0	523	507	2	0	40	24	
4	0	0	0	0	508	505	2	0	40	24	
5	0	0	0	0	482	503	1	0	40	24	
6	0	0	0	0	466	506	1	0	40	24	
7	0	0	0	0	487	508	2	0	40	24	
8	0	0	0	0	500	511	2	0	40	24	
9	0	0	0	0	500	513	1	0	40	24	
10	0	0	0	0	487	514	3	887	40	24	
11	0	0	0	0	505	515	1	1018	40	24	
12	0	0	0	0	519	513	3	1019	40	24	
13	0	0	0	0	521	512	0	1018	40	24	
14	0	0	0	0	519	513	3	1018	40	24	
15	0	0	0	0	505	513	0	1018	40	24	
0	0	0	0	0	503	512	2	1019	40	24	
1	0	0	0	0	507	510	0	839	40	24	
2	0	0	0	0	512	510	1	429	40	24	
3	0	0	0	0	522	508	0	1	40	24	
4	0	0	0	0	529	505	3	0	40	24	
5	0	0	0	0	531	504	0	0	40	24	
6	0	0	0	0	521	504	2	0	40	24	
7	0	0	0	0	514	508	0	0	40	24	
8	0	0	0	0	513	511	3	0	40	24	
9	0	0	0	0	509	512	0	0	40	24	
10	0	0	0	0	513	513	3	0	40	24	
11	0	0	0	0	522	513	0	483	40	24	
12	0	0	0	0	529	513	4	837	40	24	
13	0	0	0	0	527	511	0	959	40	24	
14	0	0	0	0	532	513	3	843	40	24	
15	0	0	0	0	529	512	0	635	40	24	
0	0	0	0	0	526	510	1	494	40	24	
1	0	0	0	0	524	510	0	319	40	24	
2	0	0	0	0	518	508	2	63	40	24	
3	0	0	0	0	506	509	0	0	40	24	
4	0	0	0	0	494	506	3	0	40	24	
5	0	0	0	0	473	504	0	0	40	24	
6	0	0	0	0	475	505	2	0	40	24	
7	0	0	0	0	473	508	0	0	40	24	
8	0	0	0	0	502	510	3	0	40	24	
9	0	0	0	0	517	512	1	0	40	24	
10	0	0	0	0	518	514	2	0	40	24	
11	0	0	0	0	522	517	0	676	40	24	
12	0	0	0	0	526	516	2	1019	40	24	
13	0	0	0	0	517	512	1	1018	40	24	
14	0	0	0	0	521	512	2	1018	40	24	
15	0	0	0	0	518	512	0	1017	40	24	
0	0	0	0	0	521	513	3	1018	40	24	
1	0	0	0	0	512	512	1	1018	40	24	
2	0	0	0	0	504	512	3	1018	40	24	
3	0	0	0	0	503	512	0	621	40	24	
4	0	0	0	0	507	512	3	206	40	24	
5	0	0	0	0	518	507	0	0	40	24	
6	0	0	0	0	527	505	2	0	40	24	
7	0	0	0	0	523	505	0	0	40	24	
8	0	0	0	0	516	509	3	0	40	24	
9	0	0	0	0	515	510	1	0	40	24	
10	0	0	0	0	517	512	1	0	40	24	
11	0	0	0	0	516	514	2	0	40	24	
12	0	0	0	0	508	516	2	984	40	24	
13	0	0	0	0	508	515	1	1018	40	24	
14	0	0	0	0	516	513	2	1018	40	24	
15	0	0	0	0	523	512	2	1018	40	24	
0	0	0	0	0	519	511	3	1018	40	24	
1	0	0	0	0	517	511	3	1018	40	24	
2	0	0	0	0	512	511	1	1018	40	24	
3	0	0	0	0	501	510	2	1018	40	24	
4	0	0	0	0	494	509	2	571	40	24	
5	0	0	0	0	490	505	2	90	40	24	
6	0	0	0	0	500	503	1	0	40	24	
7	0	0	0	0	513	502	2	0	40	24	
8	0	0	0	0	515	505	2	0	40	24	
9	0	0	0	0	504	506	2	0	40	24	
10	0	0	0	0	502	508	1	0	40	24	
11	0	0	0	0	510	511	2	0	40	24	
12	0	0	0	0	518	512	3	0	40	24	
13	0	0	0	0	522	514	1	688	40	24	
14	0	0	0	0	524	514	3	1018	40	24	
15	0	0	0	0	524	513	0	1018	40	24	
0	0	0	0	0	522	511	2	857	40	24	
1	0	0	0	0	522	512	1	685	40	24	
2	0	0	0	0	521	511	2	565	40	24	
3	0	0	0	0	519	512	0	387	40	24	
4	0	0	0	0	510	511	3	109	40	24	
5	0	0	0	0	512	509	2	0	40	24	
6	0	0	0	0	517	508	3	0	40	24	
7	0	0	0	0	523	507	1	0	40	24	
8	0	0	0	0	527	507	3	0	40	24	
9	0	0	0	0	519	505	3	0	40	24	
10	0	0	0	0	526	506	0	0	40	24	
11	0	0	0	0	521	511	1	0	40	24	
12	0	0	0	0	504	512	3	0	40	24	
13	0	0	0	0	483	512	3	785	40	24	
14	0	0	0	0	488	512	1	1018	40	24	
15	0	0	0	0	490	513	2	1018	40	24	
0	0	0	0	0	499	511	2	1018	40	24	
1	0	0	0	0	507	510	3	1018	40	24	
2	0	0	0	0	512	510	1	1018	40	24	
3	0	0	0	0	528	511	2	1018	40	24	
4	0	0	0	0	532	510	3	768	40	24	
5	0	0	0	0	535	509	3	399	40	24	
6	0	0	0	0	536	506	0	3	40	24	
7	0	0	0	0	533	505	2	0	40	24	
8	0	0	0	0	522	505	2	0	40	24	
9	0	0	0	0	503	505	2	0	40	24	
10	0	0	0	0	491	508	1	0	40	24	
11	0	0	0	0	473	510	2	0	40	24	
12	0	0	0	0	487	512	1	0	40	24	
13	0	0	0	0	495	512	1	296	40	24	
14	0	0	0	0	502	514	4	1018	40	24	
15	0	0	0	0	505	514	0	1018	40	24	
0	0	0	0	0	506	513	3	1019	40	24	
1	0	0	0	0	506	513	1	1018	40	24	
2	0	0	0	0	507	514	3	1018	40	24	
3	0	0	0	0	512	515	1	1018	40	24	
4	0	0	0	0	512	516	3	1019	40	24	
5	0	0	0	0	521	512	2	1018	40	24	
6	0	0	0	0	524	512	0	607	40	24	
7	0	0	0	0	528	509	2	191	40	24	
8	0	0	0	0	525	507	2	0	40	24	
9	0	0	0	0	517	504	2	0	40	24	
10	0	0	0	0	519	502	1	0	40	24	
11	0	0	0	0	520	507	2	0	40	24	
12	0	0	0	0	524	508	2	0	40	24	
13	0	0	0	0	524	512	2	0	40	24	
14	0	0	0	0	510	512	3	634	40	24	
15	0	0	0	0	503	513	0	1018	40	24	
0	0	0	0	0	513	513	4	1019	40	24	
1	0	0	0	0	518	509	1	1018	40	24	
2	0	0	0	0	506	510	3	1018	40	24	
3	0	0	0	0	504	510	1	1018	40	24	
4	0	0	0	0	508	510	4	1019	40	24	
5	0	0	0	0	518	509	3	1018	40	24	
6	0	0	0	0	515	509	1	1018	40	24	
7	0	0	0	0	514	510	2	552	40	24	
8	0	0	0	0	531	506	2	85	40	24	
9	0	0	0	0	528	505	2	0	40	24	
10	0	0	0	0	525	506	1	0	40	24	
11	0	0	0	0	529	509	1	0	40	24	
12	0	0	0	0	532	511	3	0	40	24	
13	0	0	0	0	526	513	0	0	40	24	
14	0	0	0	0	514	514	3	329	40	24	
15	0	0	0	0	509	518	1	1017	40	24	
0	0	0	0	0	492	517	3	1019	40	24	
1	0	0	0	0	487	514	3	1018	40	24	
2	0	0	0	0	495	514	1	1018	40	24	
3	0	0	0	0	492	513	3	1018	40	24	
4	0	0	0	0	497	513	2	1018	40	24	
5	0	0	0	0	482	513	2	1018	40	24	
6	0	0	0	0	480	514	1	1018	40	24	
7	0	0	0	0	507	510	3	681	40	24	
8	0	0	0	0	520	505	2	297	40	24	
9	0	0	0	0	526	504	2	0	40	24	
10	0	0	0	0	533	503	1	0	40	24	
11	0	0	0	0	533	504	2	0	40	24	
12	0	0	0	0	531	504	3	0	40	24	
13	0	0	0	0	528	506	2	0	40	24	
14	0	0	0	0	521	511	3	0	40	24	
15	0	0	0	0	513	513	1	749	40	24	
0	0	0	0	0	514	513	4	1019	40	24	
1	0	0	0	0	512	512	2	1018	40	24	
2	0	0	0	0	512	512	3	1018	40	24	
3	0	0	0	0	514	512	1	1018	40	24	
4	0	0	0	0	505	513	3	1019	40	24	
5	0	0	0	0	497	512	3	1018	40	24	
6	0	0	0	0	497	511	1	1018	40	24	
7	0	0	0	0	513	510	2	705	40	24	
8	0	0	0	0	522	507	1	269	40	24	
9	0	0	0	0	519	504	2	0	40	24	
10	0	0	0	0	512	504	0	0	40	24	
11	0	0	0	0	518	504	2	0	40	24	
12	0	0	0	0	519	505	3	0	40	24	
13	0	0	0	0	517	508	2	0	40	24	
14	0	0	0	0	510	512	1	0	40	24	
15	0	0	0	0	513	515	2	0	40	24	
0	0	0	0	0	526	515	3	332	40	24	
1	0	0	0	0	528	516	3	1017	40	24	
2	0	0	0	0	524	516	1	1018	40	24	
3	0	0	0	0	515	513	2	1018	40	24	
4	0	0	0	0	504	513	3	1018	40	24	
5	0	0	0	0	505	514	3	1018	40	24	
6	0	0	0	0	508	513	2	1018	40	24	
7	0	0	0	0	505	512	2	835	40	24	
8	0	0	0	0	490	510	3	545	40	24	
9	0	0	0	0	487	509	1	211	40	24	
10	0	0	0	0	499	508	2	0	40	24	
11	0	0	0	0	504	505	0	0	40	24	
12	0	0	0	0	525	506	3	0	40	24	
13	0	0	0	0	531	507	0	0	40	24	
14	0	0	0	0	524	510	3	0	40	24	
15	0	0	0	0	520	513	0	0	40	24	
0	0	0	0	0	516	512	3	0	40	24	
1	0	0	0	0	510	514	0	860	40	24	
2	0	0	0	0	507	515	3	1018	40	24	
3	0	0	0	0	511	515	0	1018	40	24	
4	0	0	0	0	517	513	2	1018	40	24	
5	0	0	0	0	513	510	1	1018	40	24	
6	0	0	0	0	500	511	3	1018	40	24	
7	0	0	0	0	500	511	1	1018	40	24	
8	0	0	0	0	505	511	4	1019	40	24	
9	0	0	0	0	518	510	1	648	40	24	
10	0	0	0	0	522	510	2	182	40	24	
11	0	0	0	0	525	509	0	0	40	24	
12	0	0	0	0	542	507	3	0	40	24	
13	0	0	0	0	562	505	2	0	40	24	
14	0	0	0	0	577	508	2	0	40	24	
15	0	0	0	0	556	509	1	0	40	24	
0	0	0	0	0	537	509	1	0	40	24	
1	0	0	0	0	514	511	1	0	40	24	
2	0	0	0	0	488	511	3	1018	40	24	
3	0	0	0	0	469	512	1	1018	40	24	
4	0	0	0	0	433	512	3	1019	40	24	
5	0	0	0	0	417	512	2	1018	40	24	
6	0	0	0	0	450	514	3	1018	40	24	
7	0	0	0	0	459	514	1	1018	40	24	
8	0	0	0	0	475	513	3	1019	40	24	
9	0	0	0	0	492	511	1	1018	40	24	
10	0	0	0	0	522	511	2	626	40	24	
11	0	0	0	0	540	511	1	168	40	24	
12	0	0	0	0	546	507	1	0	40	24	
13	0	0	0	0	541	507	1	0	40	24	
14	0	0	0	0	536	508	2	0	40	24	
15	0	0	0	0	532	510	0	0	40	24	
0	0	0	0	0	527	512	3	0	40	24	
1	0	0	0	0	525	513	2	0	40	24	
2	0	0	0	0	525	515	3	579	40	24	
3	0	0	0	0	525	516	1	1018	40	24	
4	0	0	0	0	526	515	4	1019	40	24	
5	0	0	0	0	524	512	1	1018	40	24	
6	0	0	0	0	519	512	3	1018	40	24	
7	0	0	0	0	513	513	1	1018	40	24	
8	0	0	0	0	509	512	3	1019	40	24	
9	0	0	0	0	510	510	1	837	40	24	
10	0	0	0	0	515	507	2	496	40	24	
11	0	0	0	0	521	507	0	78	40	24	
12	0	0	0	0	522	507	1	0	40	24	
13	0	0	0	0	522	504	1	0	40	24	
14	0	0	0	0	519	505	2	0	40	24	
15	0	0	0	0	512	508	0	0	40	24	
0	0	0	0	0	511	509	3	0	40	24	
1	0	0	0	0	514	511	1	0	40	24	
2	0	0	0	0	513	513	2	0	40	24	
3	0	0	0	0	513	515	0	989	40	24	
4	0	0	0	0	513	513	3	1019	40	24	
5	0	0	0	0	512	512	1	1018	40	24	
6	0	0	0	0	505	511	3	1018	40	24	
7	0	0	0	0	496	512	0	1018	40	24	
8	0	0	0	0	505	511	3	1018	40	24	
9	0	0	0	0	519	511	0	1018	40	24	
10	0	0	0	0	512	510	3	1018	40	24	
11	0	0	0	0	502	509	1	708	40	24	
12	0	0	0	0	506	506	1	257	40	24	
13	0	0	0	0	518	505	1	0	40	24	
14	0	0	0	0	532	504	2	0	40	24	
15	0	0	0	0	527	505	0	0	40	24	
0	0	0	0	0	519	506	1	0	40	24	
1	0	0	0	0	513	507	1	0	40	24	
2	0	0	0	0	506	509	2	0	40	24	
3	0	0	0	0	511	512	3	419	40	24	
4	0	0	0	0	517	513	3	1019	40	24	
5	0	0	0	0	517	512	1	1018	40	24	
6	0	0	0	0	499	511	3	1018	40	24	
7	0	0	0	0	496	512	1	1018	40	24	
8	0	0	0	0	496	513	3	1018	40	24	
9	0	0	0	0	496	513	1	1018	40	24	
10	0	0	0	0	505	514	3	1018	40	24	
11	0	0	0	0	517	513	0	1018	40	24	
12	0	0	0	0	526	509	3	600	40	24	
13	0	0	0	0	538	505	1	143	40	24	
14	0	0	0	0	547	505	3	0	40	24	
15	0	0	0	0	540	504	0	0	40	24	
0	0	0	0	0	521	504	1	0	40	24	
1	0	0	0	0	516	506	1	0	40	24	
2	0	0	0	0	507	510	2	0	40	24	
3	0	0	0	0	487	512	1	0	40	24	
4	0	0	0	0	463	512	3	363	40	24	
5	0	0	0	0	460	511	3	987	40	24	
6	0	0	0	0	463	511	1	1018	40	24	
7	0	0	0	0	481	509	3	1018	40	24	
8	0	0	0	0	497	508	3	1018	40	24	
9	0	0	0	0	519	510	3	1018	40	24	
10	0	0	0	0	534	510	1	839	40	24	
11	0	0	0	0	539	510	2	582	40	24	
12	0	0	0	0	544	508	3	259	40	24	
13	0	0	0	0	543	505	2	0	40	24	
14	0	0	0	0	541	504	1	0	40	24	
15	0	0	0	0	537	504	2	0	40	24	
0	0	0	0	0	527	505	3	0	40	24	
1	0	0	0	0	527	506	1	0	40	24	
2	0	0	0	0	529	508	3	0	40	24	
3	0	0	0	0	526	510	0	0	40	24	
4	0	0	0	0	515	510	3	0	40	24	
5	0	0	0	0	511	510	1	636	40	24	
6	0	0	0	0	489	511	3	1018	40	24	
7	0	0	0	0	484	511	1	1018	40	24	
8	0	0	0	0	481	508	4	1019	40	24	
9	0	0	0	0	470	510	1	1018	40	24	
10	0	0	0	0	467	511	3	1018	40	24	
11	0	0	0	0	498	511	1	1017	40	24	
12	0	0	0	0	514	509	3	551	40	24	
13	0	0	0	0	524	506	1	191	40	24	
14	0	0	0	0	532	505	2	0	40	24	
15	0	0	0	0	541	505	1	0	40	24	
0	0	0	0	0	545	503	1	0	40	24	
1	0	0	0	0	536	505	1	0	40	24	
2	0	0	0	0	525	507	2	0	40	24	
3	0	0	0	0	514	510	1	0	40	24	
4	0	0	0	0	505	512	2	0	40	24	
5	0	0	0	0	489	513	1	592	40	24	
6	0	0	0	0	480	515	3	1018	40	24	
7	0	0	0	0	494	514	1	1018	40	24	
8	0	0	0	0	516	513	2	1018	40	24	
9	0	0	0	0	517	511	1	1018	40	24	
10	0	0	0	0	513	511	3	1018	40	24	
11	0	0	0	0	518	512	1	1018	40	24	
12	0	0	0	0	519	510	2	1018	40	24	
13	0	0	0	0	520	507	2	1018	40	24	
14	0	0	0	0	529	504	2	571	40	24	
15	0	0	0	0	532	503	1	94	40	24	
0	0	0	0	0	529	502	3	0	40	24	
1	0	0	0	0	522	502	2	0	40	24	
2	0	0	0	0	514	505	0	0	40	24	
3	0	0	0	0	499	508	2	0	40	24	
4	0	0	0	0	490	508	2	0	40	24	
5	0	0	0	0	488	510	3	0	40	24	
6	0	0	0	0	501	514	1	465	40	24	
7	0	0	0	0	524	515	3	1018	40	24	
8	0	0	0	0	528	516	4	1019	40	24	
9	0	0	0	0	527	514	3	1018	40	24	
10	0	0	0	0	522	514	2	1018	40	24	
11	0	0	0	0	521	513	3	1018	40	24	
12	0	0	0	0	514	513	2	1019	40	24	
13	0	0	0	0	512	512	3	1018	40	24	
14	0	0	0	0	509	511	0	632	40	24	
15	0	0	0	0	504	508	3	268	40	24	
0	0	0	0	0	502	507	3	0	40	24	
1	0	0	0	0	501	504	2	0	40	24	
2	0	0	0	0	505	504	0	0	40	24	
3	0	0	0	0	511	508	3	0	40	24	
4	0	0	0	0	515	511	1	0	40	24	
5	0	0	0	0	517	513	3	0	40	24	
6	0	0	0	0	520	513	1	0	40	24	
7	0	0	0	0	526	514	3	962	40	24	
8	0	0	0	0	534	513	3	1018	40	24	
9	0	0	0	0	533	514	3	1018	40	24	
10	0	0	0	0	531	513	1	1018	40	24	
11	0	0	0	0	542	514	2	1018	40	24	
12	0	0	0	0	543	514	1	1018	40	24	
13	0	0	0	0	524	514	3	1018	40	24	
14	0	0	0	0	506	514	1	876	40	24	
15	0	0	0	0	498	511	2	500	40	24	
0	0	0	0	0	484	507	2	81	40	24	
1	0	0	0	0	462	507	2	0	40	24	
2	0	0	0	0	455	507	1	0	40	24	
3	0	0	0	0	487	507	2	0	40	24	
4	0	0	0	0	503	508	3	0	40	24	
5	0	0	0	0	494	511	3	0	40	24	
6	0	0	0	0	486	514	1	0	40	24	
7	0	0	0	0	496	513	3	644	40	24	
8	0	0	0	0	511	512	3	1019	40	24	
9	0	0	0	0	520	510	1	1018	40	24	
10	0	0	0	0	526	510	2	1018	40	24	
11	0	0	0	0	530	511	3	1018	40	24	
12	0	0	0	0	528	513	2	1019	40	24	
13	0	0	0	0	527	512	1	1018	40	24	
14	0	0	0	0	523	511	3	1018	40	24	
15	0	0	0	0	522	510	1	789	40	24	
0	0	0	0	0	522	508	1	383	40	24	
1	0	0	0	0	520	507	0	0	40	24	
2	0	0	0	0	519	505	2	0	40	24	
3	0	0	0	0	523	505	1	0	40	24	
4	0	0	0	0	516	507	1	0	40	24	
5	0	0	0	0	510	510	0	0	40	24	
6	0	0	0	0	508	512	3	0	40	24	
7	0	0	0	0	514	512	0	0	40	24	
8	0	0	0	0	519	514	3	459	40	24	
9	0	0	0	0	519	513	0	975	40	24	
10	0	0	0	0	522	513	3	1018	40	24	
11	0	0	0	0	520	512	0	1018	40	24	
12	0	0	0	0	510	511	3	1017	40	24	
13	0	0	0	0	509	512	0	808	40	24	
14	0	0	0	0	510	511	3	674	40	24	
15	0	0	0	0	512	512	0	454	40	24	
0	0	0	0	0	511	511	4	144	40	24	
1	0	0	0	0	513	508	0	0	40	24	
2	0	0	0	0	508	506	2	0	40	24	
3	0	0	0	0	505	506	0	0	40	24	
4	0	0	0	0	511	508	4	0	40	24	
5	0	0	0	0	508	510	1	0	40	24	
6	0	0	0	0	504	511	2	0	40	24	
7	0	0	0	0	508	513	1	0	40	24	
8	0	0	0	0	508	514	2	0	40	24	
9	0	0	0	0	503	516	1	743	40	24	
10	0	0	0	0	497	515	3	1018	40	24	
11	0	0	0	0	515	513	1	1018	40	24	
12	0	0	0	0	526	511	3	1019	40	24	
13	0	0	0	0	523	511	3	1018	40	24	
14	0	0	0	0	522	511	1	827	40	24	
15	0	0	0	0	521	511	3	733	40	24	
0	0	0	0	0	521	508	2	602	40	24	
1	0	0	0	0	521	507	3	393	40	24	
2	0	0	0	0	515	508	0	102	40	24	
3	0	0	0	0	516	509	2	0	40	24	
4	0	0	0	0	516	506	3	0	40	24	
5	0	0	0	0	514	507	3	0	40	24	
6	0	0	0	0	509	509	0	0	40	24	
7	0	0	0	0	509	511	2	0	40	24	
8	0	0	0	0	512	511	3	0	40	24	
9	0	0	0	0	519	512	3	700	40	24	
10	0	0	0	0	531	513	2	1018	40	24	
11	0	0	0	0	536	513	2	1018	40	24	
12	0	0	0	0	525	511	3	1019	40	24	
13	0	0	0	0	508	511	3	1018	40	24	
14	0	0	0	0	496	514	1	1018	40	24	
15	0	0	0	0	494	513	2	1018	40	24	
0	0	0	0	0	486	512	2	1019	40	24	
1	0	0	0	0	480	509	3	1018	40	24	
2	0	0	0	0	475	508	1	1018	40	24	
3	0	0	0	0	483	508	2	399	40	24	
4	0	0	0	0	497	507	2	0	40	24	
5	0	0	0	0	497	508	0	0	40	24	
6	0	0	0	0	499	510	1	0	40	24	
7	0	0	0	0	502	511	2	0	40	24	
8	0	0	0	0	506	511	3	0	40	24	
9	0	0	0	0	522	513	1	0	40	24	
10	0	0	0	0	531	515	3	911	40	24	
11	0	0	0	0	537	515	1	1018	40	24	
12	0	0	0	0	537	515	3	1019	40	24	
13	0	0	0	0	539	513	0	1018	40	24	
14	0	0	0	0	533	513	3	1018	40	24	
15	0	0	0	0	523	514	0	1018	40	24	
0	0	0	0	0	520	512	3	1019	40	24	
1	0	0	0	0	524	511	0	1018	40	24	
2	0	0	0	0	529	512	3	816	40	24	
3	0	0	0	0	528	510	0	407	40	24	
4	0	0	0	0	528	507	3	0	40	24	
5	0	0	0	0	523	504	0	0	40	24	
6	0	0	0	0	519	506	3	0	40	24	
7	0	0	0	0	505	511	0	0	40	24	
8	0	0	0	0	498	511	3	0	40	24	
9	0	0	0	0	497	512	1	0	40	24	
10	0	0	0	0	495	513	3	328	40	24	
11	0	0	0	0	494	513	0	1017	40	24	
12	0	0	0	0	492	511	2	1018	40	24	
13	0	0	0	0	483	511	1	1018	40	24	
14	0	0	0	0	492	510	3	1018	40	24	
15	0	0	0	0	511	511	0	1018	40	24	
0	0	0	0	0	527	513	4	1019	40	24	
1	0	0	0	0	530	510	1	1018	40	24	
2	0	0	0	0	528	510	3	1018	40	24	
3	0	0	0	0	531	509	0	698	40	24	
4	0	0	0	0	534	505	3	292	40	24	
5	0	0	0	0	536	504	0	0	40	24	
6	0	0	0	0	531	505	3	0	40	24	
7	0	0	0	0	510	508	0	0	40	24	
8	0	0	0	0	504	509	4	0	40	24	
9	0	0	0	0	504	510	1	0	40	24	
10	0	0	0	0	500	512	2	0	40	24	
11	0	0	0	0	515	513	0	539	40	24	
12	0	0	0	0	510	515	4	1019	40	24	
13	0	0	0	0	504	513	1	1018	40	24	
14	0	0	0	0	511	513	3	1018	40	24	
15	0	0	0	0	510	513	1	1018	40	24	
0	0	0	0	0	511	513	1	1019	40	24	
1	0	0	0	0	508	515	2	1018	40	24	
2	0	0	0	0	511	514	3	1018	40	24	
3	0	0	0	0	512	513	1	754	40	24	
4	0	0	0	0	506	510	2	404	40	24	
5	0	0	0	0	502	508	3	51	40	24	
6	0	0	0	0	507	508	1	0	40	24	
7	0	0	0	0	504	505	2	0	40	24	
8	0	0	0	0	497	508	3	0	40	24	
9	0	0	0	0	499	510	2	0	40	24	
10	0	0	0	0	502	513	2	0	40	24	
11	0	0	0	0	515	515	1	0	40	24	
12	0	0	0	0	518	515	2	710	40	24	
13	0	0	0	0	523	514	3	1018	40	24	
14	0	0	0	0	517	514	1	1018	40	24	
15	0	0	0	0	524	514	3	1018	40	24	
0	0	0	0	0	527	514	2	1018	40	24	
1	0	0	0	0	527	512	3	1018	40	24	
2	0	0	0	0	527	511	0	1018	40	24	
3	0	0	0	0	523	513	3	1017	40	24	
4	0	0	0	0	522	511	3	545	40	24	
5	0	0	0	0	514	510	3	138	40	24	
6	0	0	0	0	517	507	1	0	40	24	
7	0	0	0	0	517	504	2	0	40	24	
8	0	0	0	0	515	505	2	0	40	24	
9	0	0	0	0	510	505	1	0	40	24	
10	0	0	0	0	514	507	3	0	40	24	
11	0	0	0	0	502	509	0	0	40	24	
12	0	0	0	0	495	507	2	376	40	24	
13	0	0	0	0	509	509	1	1017	40	24	
14	0	0	0	0	535	511	3	1018	40	24	
15	0	0	0	0	549	512	2	1018	40	24	
0	0	0	0	0	541	510	3	1019	40	24	
1	0	0	0	0	526	509	3	1018	40	24	
2	0	0	0	0	521	511	0	1018	40	24	
3	0	0	0	0	507	513	2	1018	40	24	
4	0	0	0	0	489	511	2	694	40	24	
5	0	0	0	0	491	511	2	417	40	24	
6	0	0	0	0	495	510	2	76	40	24	
7	0	0	0	0	496	508	0	0	40	24	
8	0	0	0	0	485	505	3	0	40	24	
9	0	0	0	0	480	505	1	0	40	24	
10	0	0	0	0	484	507	2	0	40	24	
11	0	0	0	0	499	510	1	0	40	24	
12	0	0	0	0	513	511	3	0	40	24	
13	0	0	0	0	514	513	3	368	40	24	
14	0	0	0	0	521	516	1	1018	40	24	
15	0	0	0	0	521	515	2	1018	40	24	
0	0	0	0	0	520	517	3	1019	40	24	
1	0	0	0	0	522	514	3	1018	40	24	
2	0	0	0	0	523	513	1	1018	40	24	
3	0	0	0	0	524	513	2	1018	40	24	
4	0	0	0	0	528	512	1	1019	40	24	
5	0	0	0	0	523	509	0	839	40	24	
6	0	0	0	0	524	508	2	500	40	24	
7	0	0	0	0	531	505	0	121	40	24	
8	0	0	0	0	539	502	2	0	40	24	
9	0	0	0	0	541	503	0	0	40	24	
10	0	0	0	0	537	506	2	0	40	24	
11	0	0	0	0	531	509	0	0	40	24	
12	0	0	0	0	517	512	3	0	40	24	
13	0	0	0	0	503	512	1	0	40	24	
14	0	0	0	0	489	512	3	664	40	24	
15	0	0	0	0	476	514	1	1018	40	24	
0	0	0	0	0	467	513	3	1019	40	24	
1	0	0	0	0	475	510	0	1018	40	24	
2	0	0	0	0	488	510	3	1018	40	24	
3	0	0	0	0	502	512	0	1018	40	24	
4	0	0	0	0	503	512	3	1019	40	24	
5	0	0	0	0	504	511	0	1018	40	24	
6	0	0	0	0	517	510	3	776	40	24	
7	0	0	0	0	528	507	0	426	40	24	
8	0	0	0	0	536	506	1	35	40	24	
9	0	0	0	0	529	504	0	0	40	24	
10	0	0	0	0	526	505	2	0	40	24	
11	0	0	0	0	508	508	0	0	40	24	
12	0	0	0	0	502	512	3	0	40	24	
13	0	0	0	0	508	512	1	0	40	23	
14	0	0	0	0	515	514	3	300	40	24	
15	0	0	0	0	516	517	1	998	40	24	
0	0	0	0	0	516	514	2	1018	40	23	
1	0	0	0	0	513	514	2	1018	40	24	
2	0	0	0	0	521	512	2	1018	40	24	
3	0	0	0	0	522	513	1	1018	40	24	
4	0	0	0	0	517	512	1	1018	40	24	
5	0	0	0	0	511	512	1	1018	40	24	
6	0	0	0	0	515	514	3	870	40	24	
7	0	0	0	0	530	512	1	570	40	24	
8	0	0	0	0	539	509	3	197	40	24	
9	0	0	0	0	541	507	2	0	40	24	
10	0	0	0	0	535	506	2	0	40	24	
11	0	0	0	0	524	506	1	0	40	24	
12	0	0	0	0	515	507	3	0	40	24	
13	0	0	0	0	515	509	2	0	40	24	
14	0	0	0	0	519	512	2	0	40	24	
15	0	0	0	0	516	513	1	245	40	24	
0	0	0	0	0	510	512	1	857	40	24	
1	0	0	0	0	468	512	2	1018	40	24	
2	0	0	0	0	435	511	3	1018	40	24	
3	0	0	0	0	453	510	2	1018	40	24	
4	0	0	0	0	485	511	3	1017	40	24	
5	0	0	0	0	497	510	3	1018	40	24	
6	0	0	0	0	507	510	1	791	40	24	
7	0	0	0	0	507	509	2	538	40	24	
8	0	0	0	0	506	508	3	236	40	24	
9	0	0	0	0	498	507	2	0	40	24	
10	0	0	0	0	495	507	1	0	40	24	
11	0	0	0	0	515	508	2	0	40	24	
12	0	0	0	0	526	508	1	0	40	24	
13	0	0	0	0	528	511	3	0	40	24	
14	0	0	0	0	534	514	1	0	40	23	
15	0	0	0	0	531	516	2	0	40	24	
0	0	0	0	0	522	516	3	738	40	24	
1	0	0	0	0	515	516	3	1018	40	23	
2	0	0	0	0	519	516	1	1018	40	24	
3	0	0	0	0	525	514	3	1018	40	23	
4	0	0	0	0	535	514	2	1018	40	24	
5	0	0	0	0	532	513	1	1018	40	23	
6	0	0	0	0	526	512	2	1018	40	24	
7	0	0	0	0	522	514	1	747	40	24	
8	0	0	0	0	520	511	2	468	40	24	
9	0	0	0	0	523	508	1	136	40	24	
10	0	0	0	0	520	505	2	0	40	23	
11	0	0	0	0	512	504	0	0	40	23	
12	0	0	0	0	509	506	3	0	40	24	
13	0	0	0	0	495	505	2	0	40	24	
14	0	0	0	0	501	507	3	0	40	24	
15	0	0	0	0	506	509	2	0	40	23	
0	0	0	0	0	510	509	4	241	40	24	
1	0	0	0	0	518	508	3	958	40	24	
2	0	0	0	0	524	508	1	1018	40	24	
3	0	0	0	0	515	509	2	1018	40	24	
4	0	0	0	0	515	508	2	1019	40	24	
5	0	0	0	0	511	509	1	1018	40	24	
6	0	0	0	0	512	509	3	1018	40	24	
7	0	0	0	0	517	511	0	1017	40	23	
8	0	0	0	0	515	510	2	716	40	24	
9	0	0	0	0	520	508	1	409	40	23	
10	0	0	0	0	519	506	2	76	40	23	
11	0	0	0	0	519	506	2	0	40	24	
12	0	0	0	0	524	504	2	0	40	24	
13	0	0	0	0	522	504	2	0	40	23	
14	0	0	0	0	518	507	1	0	40	24	
15	0	0	0	0	516	508	2	0	40	23	
0	0	0	0	0	516	512	2	0	40	24	
1	0	0	0	0	507	510	0	348	40	23	
2	0	0	0	0	495	512	3	1010	40	24	
3	0	0	0	0	492	512	0	1018	40	24	
4	0	0	0	0	492	510	3	1019	40	24	
5	0	0	0	0	493	508	3	1018	40	24	
6	0	0	0	0	492	511	1	1018	40	24	
7	0	0	0	0	500	511	3	828	40	23	
8	0	0	0	0	509	511	3	616	40	23	
9	0	0	0	0	507	507	3	402	40	23	
10	0	0	0	0	505	507	1	120	40	24	
11	0	0	0	0	512	506	1	0	40	23	
12	0	0	0	0	520	507	3	0	40	24	
13	0	0	0	0	525	503	0	0	40	23	
14	0	0	0	0	521	505	2	0	40	23	
15	0	0	0	0	524	509	1	0	40	24	
0	0	0	0	0	523	511	1	0	40	23	
1	0	0	0	0	522	512	3	0	40	23	
2	0	0	0	0	534	511	1	614	40	23	
3	0	0	0	0	556	512	2	1018	40	23	
4	0	0	0	0	555	512	3	1019	40	24	
5	0	0	0	0	537	510	3	1018	40	23	
6	0	0	0	0	516	513	1	1018	40	24	
7	0	0	0	0	497	513	1	1018	40	23	
8	0	0	0	0	482	511	3	1019	40	24	
9	0	0	0	0	474	510	0	1018	40	23	
10	0	0	0	0	487	509	2	642	40	23	
11	0	0	0	0	503	509	0	298	40	24	
12	0	0	0	0	498	506	2	0	40	23	
13	0	0	0	0	467	507	2	0	40	23	
14	0	0	0	0	461	506	0	0	40	24	
15	0	0	0	0	486	508	2	0	40	23	
0	0	0	0	0	510	509	3	0	40	24	
1	0	0	0	0	524	509	2	0	40	23	
2	0	0	0	0	528	512	1	480	40	23	
3	0	0	0	0	531	514	3	1017	40	23	
4	0	0	0	0	529	513	2	1019	40	23	
5	0	0	0	0	514	511	1	1018	40	23	
6	0	0	0	0	513	511	3	1018	40	23	
7	0	0	0	0	516	512	0	1018	40	23	
8	0	0	0	0	521	512	4	1019	40	24	
9	0	0	0	0	531	508	2	1018	40	23	
10	0	0	0	0	534	508	1	1018	40	23	
11	0	0	0	0	531	507	2	803	40	23	
12	0	0	0	0	529	503	1	393	40	23	
13	0	0	0	0	534	502	2	20	40	23	
14	0	0	0	0	532	501	1	0	40	23	
15	0	0	0	0	515	504	2	0	40	23	
0	0	0	0	0	504	506	3	0	40	23	
1	0	0	0	0	494	508	0	0	40	23	
2	0	0	0	0	479	511	3	266	40	23	
3	0	0	0	0	474	513	1	858	40	23	
4	0	0	0	0	499	515	4	1019	40	23	
5	0	0	0	0	520	512	2	1018	40	23	
6	0	0	0	0	519	511	3	1018	40	23	
7	0	0	0	0	516	513	2	1018	40	23	
8	0	0	0	0	515	515	4	1019	40	23	
9	0	0	0	0	512	513	3	1018	40	23	
10	0	0	0	0	516	512	1	1018	40	23	
11	0	0	0	0	515	513	2	1018	40	23	
12	0	0	0	0	522	511	2	610	40	23	
13	0	0	0	0	514	506	1	222	40	23	
14	0	0	0	0	511	506	3	0	40	23	
15	0	0	0	0	516	507	0	0	40	23	
0	0	0	0	0	512	510	3	0	40	23	
1	0	0	0	0	517	510	1	0	40	23	
2	0	0	0	0	525	512	2	0	40	23	
3	0	0	0	0	526	512	2	0	40	23	
4	0	0	0	0	529	512	2	823	40	23	
5	0	0	0	0	532	515	3	1018	40	23	
6	0	0	0	0	530	514	1	1018	40	23	
7	0	0	0	0	523	514	2	1018	40	23	
8	0	0	0	0	515	515	3	1019	40	23	
9	0	0	0	0	505	513	1	1018	40	23	
10	0	0	0	0	493	514	3	1018	40	23	
11	0	0	0	0	481	515	1	1017	40	23	
12	0	0	0	0	477	512	3	700	40	23	
13	0	0	0	0	487	508	3	318	40	23	
14	0	0	0	0	518	505	0	0	40	23	
15	0	0	0	0	521	505	2	0	40	23	
0	0	0	0	0	508	508	3	0	40	23	
1	0	0	0	0	507	510	0	0	40	23	
2	0	0	0	0	513	512	3	0	40	23	
3	0	0	0	0	517	513	1	0	40	23	
4	0	0	0	0	511	514	1	460	40	23	
5	0	0	0	0	499	515	3	1018	40	23	
6	0	0	0	0	496	515	1	1018	40	23	
7	0	0	0	0	503	516	2	1018	40	23	
8	0	0	0	0	516	514	3	1019	40	23	
9	0	0	0	0	516	514	0	1018	40	23	
10	0	0	0	0	518	514	3	1018	40	23	
11	0	0	0	0	524	514	1	1017	40	23	
12	0	0	0	0	527	509	1	700	40	23	
13	0	0	0	0	529	508	3	401	40	23	
14	0	0	0	0	540	509	0	53	40	23	
15	0	0	0	0	546	510	2	0	40	23	
0	0	0	0	0	551	510	2	0	40	23	
1	0	0	0	0	540	509	0	0	40	23	
2	0	0	0	0	525	511	3	0	40	23	
3	0	0	0	0	513	512	0	0	40	23	
4	0	0	0	0	503	513	1	0	40	23	
5	0	0	0	0	504	515	3	421	40	23	
6	0	0	0	0	504	516	0	1018	40	23	
7	0	0	0	0	497	514	2	1018	40	23	
8	0	0	0	0	492	512	3	1019	40	23	
9	0	0	0	0	477	512	1	1018	40	23	
10	0	0	0	0	464	514	3	1018	40	23	
11	0	0	0	0	483	514	0	840	40	23	
12	0	0	0	0	500	513	3	638	40	23	
13	0	0	0	0	502	510	1	428	40	23	
14	0	0	0	0	494	510	2	149	40	23	
15	0	0	0	0	497	508	1	0	40	23	
0	0	0	0	0	509	506	3	0	40	23	
1	0	0	0	0	520	505	2	0	40	23	
2	0	0	0	0	527	507	1	0	40	23	
3	0	0	0	0	528	510	2	0	40	23	
4	0	0	0	0	529	509	3	0	40	23	
5	0	0	0	0	527	508	2	0	40	23	
6	0	0	0	0	528	509	1	523	40	23	
7	0	0	0	0	528	511	3	1004	40	23	
8	0	0	0	0	528	511	3	1018	40	23	
9	0	0	0	0	530	510	0	1018	40	23	
10	0	0	0	0	526	511	3	1018	40	23	
11	0	0	0	0	522	513	0	1017	40	23	
12	0	0	0	0	535	511	3	830	40	23	
13	0	0	0	0	549	510	2	712	40	23	
14	0	0	0	0	538	510	2	484	40	23	
15	0	0	0	0	526	510	2	203	40	23	
0	0	0	0	0	516	506	2	0	40	23	
1	0	0	0	0	513	506	2	0	40	23	
2	0	0	0	0	502	507	0	0	40	23	
3	0	0	0	0	490	508	2	0	40	23	
4	0	0	0	0	492	508	2	0	40	23	
5	0	0	0	0	490	509	1	0	40	23	
6	0	0	0	0	474	510	3	430	40	23	
7	0	0	0	0	451	513	1	918	40	23	
8	0	0	0	0	455	514	3	1019	40	23	
9	0	0	0	0	468	514	3	1018	40	23	
10	0	0	0	0	486	514	1	1018	40	23	
11	0	0	0	0	498	516	2	1018	40	23	
12	0	0	0	0	502	517	2	896	40	23	
13	0	0	0	0	518	515	0	749	40	23	
14	0	0	0	0	528	512	2	555	40	23	
15	0	0	0	0	531	510	0	320	40	23	
0	0	0	0	0	540	509	3	35	40	23	
1	0	0	0	0	542	508	2	0	40	23	
2	0	0	0	0	540	507	1	0	40	23	
3	0	0	0	0	535	508	2	0	40	23	
4	0	0	0	0	518	511	3	0	40	23	
5	0	0	0	0	512	513	2	0	40	23	
6	0	0	0	0	515	514	0	0	40	23	
7	0	0	0	0	519	515	2	782	40	23	
8	0	0	0	0	518	516	3	1018	40	23	
9	0	0	0	0	522	514	0	1018	40	23	
10	0	0	0	0	521	513	2	1018	40	23	
11	0	0	0	0	521	513	1	1017	40	23	
12	0	0	0	0	524	514	3	1019	40	23	
13	0	0	0	0	521	512	0	1018	40	23	
14	0	0	0	0	516	510	3	1018	40	23	
15	0	0	0	0	514	508	1	740	40	23	
0	0	0	0	0	518	507	3	430	40	23	
1	0	0	0	0	518	505	2	125	40	23	
2	0	0	0	0	518	504	1	0	40	23	
3	0	0	0	0	508	503	2	0	40	23	
4	0	0	0	0	505	505	3	0	40	23	
5	0	0	0	0	505	507	2	0	40	23	
6	0	0	0	0	496	509	1	0	40	23	
7	0	0	0	0	499	511	2	0	40	23	
8	0	0	0	0	513	512	2	527	40	23	
9	0	0	0	0	524	512	3	962	40	22	
10	0	0	0	0	529	512	1	1018	40	23	
11	0	0	0	0	529	511	2	1017	40	22	
12	0	0	0	0	518	511	2	1018	40	23	
13	0	0	0	0	513	511	3	899	40	22	
14	0	0	0	0	516	511	1	781	40	22	
15	0	0	0	0	501	511	2	594	40	22	
0	0	0	0	0	488	510	3	342	40	22	
1	0	0	0	0	489	509	1	68	40	22	
2	0	0	0	0	495	508	1	0	40	22	
3	0	0	0	0	495	506	0	0	40	22	
4	0	0	0	0	507	507	3	0	40	22	
5	0	0	0	0	519	507	1	0	40	22	
6	0	0	0	0	519	508	2	0	40	22	
7	0	0	0	0	520	510	0	0	40	22	
8	0	0	0	0	516	511	3	671	40	22	
9	0	0	0	0	515	511	0	1018	40	22	
10	0	0	0	0	516	511	3	1018	40	22	
11	0	0	0	0	517	511	1	1018	40	22	
12	0	0	0	0	516	510	3	1019	40	22	
13	0	0	0	0	512	510	0	1018	40	22	
14	0	0	0	0	513	512	2	1018	40	22	
15	0	0	0	0	517	512	0	1018	40	22	
0	0	0	0	0	517	510	2	1017	40	22	
1	0	0	0	0	519	508	1	783	40	22	
2	0	0	0	0	516	505	2	436	40	22	
3	0	0	0	0	520	505	1	95	40	22	
4	0	0	0	0	519	503	3	0	40	22	
5	0	0	0	0	514	506	2	0	40	22	
6	0	0	0	0	514	509	3	0	40	22	
7	0	0	0	0	514	511	2	0	40	22	
8	0	0	0	0	511	512	1	0	40	22	
9	0	0	0	0	510	513	3	696	40	22	
10	0	0	0	0	506	515	1	1018	40	22	
11	0	0	0	0	504	516	2	1018	40	22	
12	0	0	0	0	508	513	3	1019	40	22	
13	0	0	0	0	511	512	2	1018	40	22	
14	0	0	0	0	510	512	1	1018	40	22	
15	0	0	0	0	507	512	2	1018	40	22	
0	0	0	0	0	515	511	3	1019	40	22	
1	0	0	0	0	516	512	2	781	40	22	
2	0	0	0	0	519	509	0	475	40	22	
3	0	0	0	0	526	509	2	153	40	22	
4	0	0	0	0	528	508	2	0	40	22	
5	0	0	0	0	526	506	2	0	40	22	
6	0	0	0	0	524	507	1	0	40	22	
7	0	0	0	0	519	510	2	0	40	22	
8	0	0	0	0	515	512	2	0	40	22	
9	0	0	0	0	502	512	1	0	40	22	
10	0	0	0	0	491	515	3	922	40	22	
11	0	0	0	0	483	513	1	1018	40	22	
12	0	0	0	0	494	514	4	1019	40	22	
13	0	0	0	0	508	511	3	1018	40	22	
14	0	0	0	0	505	512	1	1018	40	22	
15	0	0	0	0	501	514	3	1018	40	22	
0	0	0	0	0	508	514	3	1019	40	22	
1	0	0	0	0	524	514	3	1018	40	22	
2	0	0	0	0	530	514	1	1018	40	22	
3	0	0	0	0	535	511	1	582	40	22	
4	0	0	0	0	536	510	1	202	40	22	
5	0	0	0	0	527	508	0	0	40	22	
6	0	0	0	0	523	510	2	0	40	22	
7	0	0	0	0	524	514	0	0	40	22	
8	0	0	0	0	516	515	3	0	40	22	
9	0	0	0	0	507	515	2	0	40	22	
10	0	0	0	0	489	515	1	405	40	22	
11	0	0	0	0	501	518	2	906	40	22	
12	0	0	0	0	513	516	2	1019	40	22	
13	0	0	0	0	506	514	3	1018	40	22	
14	0	0	0	0	485	513	1	1018	40	22	
15	0	0	0	0	466	513	2	1018	40	22	
0	0	0	0	0	476	513	3	911	40	22	
1	0	0	0	0	483	512	2	862	40	22	
2	0	0	0	0	489	512	1	751	40	22	
3	0	0	0	0	510	510	2	571	40	22	
4	0	0	0	0	530	508	2	278	40	22	
5	0	0	0	0	551	505	2	0	40	22	
6	0	0	0	0	554	504	1	0	40	22	
7	0	0	0	0	552	505	2	0	40	22	
8	0	0	0	0	554	508	2	0	40	22	
9	0	0	0	0	556	508	1	0	40	22	
10	0	0	0	0	568	510	1	403	40	22	
11	0	0	0	0	579	513	2	969	40	22	
12	0	0	0	0	559	514	3	1019	40	22	
13	0	0	0	0	531	512	1	1018	40	22	
14	0	0	0	0	499	511	2	1018	40	22	
15	0	0	0	0	463	512	1	1018	40	22	
0	0	0	0	0	440	511	3	1017	40	22	
1	0	0	0	0	435	511	1	1018	40	22	
2	0	0	0	0	452	511	3	1018	40	22	
3	0	0	0	0	462	510	0	669	40	22	
4	0	0	0	0	473	506	3	372	40	22	
5	0	0	0	0	496	505	0	87	40	22	
6	0	0	0	0	531	504	2	0	40	22	
7	0	0	0	0	536	505	0	0	40	22	
8	0	0	0	0	506	507	3	0	40	22	
9	0	0	0	0	487	508	1	0	40	22	
10	0	0	0	0	488	510	2	0	40	22	
11	0	0	0	0	500	509	1	302	40	22	
12	0	0	0	0	514	511	3	828	40	22	
13	0	0	0	0	521	510	3	1018	40	22	
14	0	0	0	0	528	512	1	1018	40	22	
15	0	0	0	0	534	510	3	1018	40	22	
0	0	0	0	0	534	510	3	1019	40	22	
1	0	0	0	0	533	509	3	1018	40	22	
2	0	0	0	0	534	510	2	935	40	22	
3	0	0	0	0	536	509	1	759	40	22	
4	0	0	0	0	531	507	4	546	40	22	
5	0	0	0	0	527	506	1	254	40	22	
6	0	0	0	0	524	507	2	0	40	22	
7	0	0	0	0	521	508	1	0	40	22	
8	0	0	0	0	511	510	3	0	40	22	
9	0	0	0	0	502	509	3	0	40	22	
10	0	0	0	0	508	509	1	0	40	22	
11	0	0	0	0	514	510	2	343	40	22	
12	0	0	0	0	519	510	2	1013	40	22	
13	0	0	0	0	518	510	3	1018	40	22	
14	0	0	0	0	529	511	1	1018	40	22	
15	0	0	0	0	520	512	2	1018	40	22	
0	0	0	0	0	519	510	3	1019	40	22	
1	0	0	0	0	506	508	2	1018	40	22	
2	0	0	0	0	505	509	1	1018	40	22	
3	0	0	0	0	507	510	2	1018	40	22	
4	0	0	0	0	508	511	3	884	40	22	
5	0	0	0	0	510	508	2	588	40	21	
6	0	0	0	0	509	508	0	254	40	22	
7	0	0	0	0	506	508	2	0	40	22	
8	0	0	0	0	510	505	3	0	40	21	
9	0	0	0	0	503	506	3	0	40	21	
10	0	0	0	0	511	508	1	0	40	21	
11	0	0	0	0	516	510	2	0	40	21	
12	0	0	0	0	519	512	3	0	40	22	
13	0	0	0	0	513	513	1	510	40	21	
14	0	0	0	0	512	513	3	1017	40	21	
15	0	0	0	0	513	514	1	1018	40	21	
0	0	0	0	0	523	512	3	1019	40	21	
1	0	0	0	0	525	511	0	1018	40	21	
2	0	0	0	0	528	511	3	1018	40	21	
3	0	0	0	0	524	509	0	1018	40	21	
4	0	0	0	0	527	511	3	1019	40	21	
5	0	0	0	0	509	509	1	1018	40	21	
6	0	0	0	0	477	507	2	576	40	21	
7	0	0	0	0	469	507	0	209	40	21	
8	0	0	0	0	475	506	3	0	40	21	
9	0	0	0	0	485	506	1	0	40	21	
10	0	0	0	0	494	507	2	0	40	21	
11	0	0	0	0	498	508	1	0	40	21	
12	0	0	0	0	506	510	1	0	40	21	
13	0	0	0	0	516	511	3	0	40	21	
14	0	0	0	0	523	511	0	790	40	21	
15	0	0	0	0	528	512	2	1018	40	21	
0	0	0	0	0	540	514	3	1017	40	21	
1	0	0	0	0	550	512	3	1018	40	21	
2	0	0	0	0	547	512	3	1018	40	21	
3	0	0	0	0	542	513	1	1018	40	21	
4	0	0	0	0	535	510	3	982	40	21	
5	0	0	0	0	527	509	1	892	40	21	
6	0	0	0	0	521	507	2	645	40	21	
7	0	0	0	0	511	507	1	353	40	21	
8	0	0	0	0	514	506	3	15	40	21	
9	0	0	0	0	502	504	2	0	40	21	
10	0	0	0	0	475	506	0	0	40	21	
11	0	0	0	0	468	510	2	0	40	21	
12	0	0	0	0	479	511	3	0	40	21	
13	0	0	0	0	481	510	3	0	40	21	
14	0	0	0	0	481	512	0	728	40	21	
15	0	0	0	0	500	513	2	1018	40	21	
0	0	0	0	0	527	512	3	1019	40	21	
1	0	0	0	0	534	511	3	1018	40	21	
2	0	0	0	0	530	512	1	1018	40	21	
3	0	0	0	0	525	512	2	1018	40	21	
4	0	0	0	0	523	512	3	1018	40	21	
5	0	0	0	0	525	509	3	1018	40	21	
6	0	0	0	0	519	510	1	1018	40	21	
7	0	0	0	0	515	510	2	604	40	21	
8	0	0	0	0	518	506	3	251	40	21	
9	0	0	0	0	517	506	2	0	40	21	
10	0	0	0	0	521	505	1	0	40	21	
11	0	0	0	0	505	507	2	0	40	21	
12	0	0	0	0	502	509	1	0	40	21	
13	0	0	0	0	506	509	3	0	40	21	
14	0	0	0	0	511	511	1	173	40	21	
15	0	0	0	0	511	512	3	713	40	21	
0	0	0	0	0	505	512	3	1018	40	21	
1	0	0	0	0	516	513	1	1018	40	21	
2	0	0	0	0	537	512	2	1018	40	21	
3	0	0	0	0	536	512	1	1018	40	21	
4	0	0	0	0	532	510	3	1019	40	21	
5	0	0	0	0	526	509	0	1018	40	21	
6	0	0	0	0	523	508	3	899	40	21	
7	0	0	0	0	519	506	0	660	40	21	
8	0	0	0	0	518	505	3	362	40	21	
9	0	0	0	0	514	506	0	45	40	21	
10	0	0	0	0	509	507	3	0	40	21	
11	0	0	0	0	502	509	0	0	40	21	
12	0	0	0	0	484	511	3	0	40	21	
13	0	0	0	0	473	511	0	0	40	21	
14	0	0	0	0	474	511	3	0	40	21	
15	0	0	0	0	486	512	0	0	40	21	
0	0	0	0	0	511	512	2	393	40	21	
1	0	0	0	0	521	513	1	716	40	21	
2	0	0	0	0	521	511	3	887	40	21	
3	0	0	0	0	525	512	1	824	40	21	
4	0	0	0	0	521	511	3	678	40	21	
5	0	0	0	0	524	511	3	614	40	21	
6	0	0	0	0	521	511	3	554	40	21	
7	0	0	0	0	517	511	1	422	40	21	
8	0	0	0	0	510	509	3	243	40	21	
9	0	0	0	0	507	508	2	26	40	21	
10	0	0	0	0	506	506	1	0	40	21	
11	0	0	0	0	501	507	2	0	40	21	
12	0	0	0	0	513	508	3	0	40	21	
13	0	0	0	0	527	508	3	0	40	21	
14	0	0	0	0	530	509	1	0	40	21	
15	0	0	0	0	513	509	2	0	40	21	
0	0	0	0	0	506	512	3	573	40	21	
1	0	0	0	0	509	513	3	1018	40	21	
2	0	0	0	0	512	512	2	1018	40	21	
3	0	0	0	0	517	512	1	1017	40	21	
4	0	0	0	0	525	512	3	1019	40	21	
5	0	0	0	0	519	512	0	1018	40	21	
6	0	0	0	0	521	513	2	1018	40	21	
7	0	0	0	0	520	513	1	1017	40	21	
8	0	0	0	0	521	511	1	839	40	21	
9	0	0	0	0	524	509	2	566	40	21	
10	0	0	0	0	527	508	1	235	40	21	
11	0	0	0	0	526	509	2	0	40	21	
12	0	0	0	0	513	507	3	0	40	21	
13	0	0	0	0	508	507	3	0	40	21	
14	0	0	0	0	498	508	1	0	40	21	
15	0	0	0	0	482	511	2	0	40	21	
0	0	0	0	0	476	512	3	240	40	21	
1	0	0	0	0	475	513	1	778	40	21	
2	0	0	0	0	491	514	3	1018	40	21	
3	0	0	0	0	506	513	1	1018	40	21	
4	0	0	0	0	513	512	3	1019	40	21	
5	0	0	0	0	514	513	0	1018	40	21	
6	0	0	0	0	521	513	3	1018	40	20	
7	0	0	0	0	543	512	1	1017	40	21	
8	0	0	0	0	553	512	3	823	40	21	
9	0	0	0	0	548	511	0	569	40	20	
10	0	0	0	0	533	510	2	272	40	21	
11	0	0	0	0	525	508	0	0	40	20	
12	0	0	0	0	535	504	3	0	40	21	
13	0	0	0	0	531	505	0	0	40	20	
14	0	0	0	0	523	505	2	0	40	21	
15	0	0	0	0	533	507	0	0	40	20	
0	0	0	0	0	535	509	2	0	40	20	
1	0	0	0	0	530	510	2	0	40	20	
2	0	0	0	0	536	512	1	743	40	20	
3	0	0	0	0	525	513	2	1018	40	20	
4	0	0	0	0	494	511	3	1018	40	20	
5	0	0	0	0	480	508	3	1018	40	20	
6	0	0	0	0	446	511	2	1018	40	20	
7	0	0	0	0	435	511	2	1018	40	20	
8	0	0	0	0	444	509	3	1019	40	20	
9	0	0	0	0	467	509	3	864	40	20	
10	0	0	0	0	472	508	0	560	40	20	
11	0	0	0	0	479	509	2	226	40	20	
12	0	0	0	0	506	506	1	0	40	20	
13	0	0	0	0	518	506	2	0	40	20	
14	0	0	0	0	517	507	1	0	40	20	
15	0	0	0	0	511	508	2	0	40	20	
0	0	0	0	0	505	512	2	0	40	20	
1	0	0	0	0	509	514	3	0	40	20	
2	0	0	0	0	517	516	1	708	40	20	
3	0	0	0	0	527	515	2	1017	40	20	
4	0	0	0	0	535	515	3	1019	40	20	
5	0	0	0	0	539	513	2	1018	40	20	
6	0	0	0	0	542	512	2	1018	40	20	
7	0	0	0	0	532	512	1	1018	40	20	
8	0	0	0	0	519	510	3	1017	40	20	
9	0	0	0	0	509	510	1	1018	40	20	
10	0	0	0	0	509	510	3	817	40	20	
11	0	0	0	0	516	508	0	560	40	20	
12	0	0	0	0	526	506	3	281	40	20	
13	0	0	0	0	529	505	1	17	40	20	
14	0	0	0	0	529	505	2	0	40	20	
15	0	0	0	0	524	508	2	0	40	20	
0	0	0	0	0	524	506	2	0	40	20	
1	0	0	0	0	517	508	3	0	40	20	
2	0	0	0	0	523	509	1	528	40	20	
3	0	0	0	0	540	510	2	1002	40	20	
4	0	0	0	0	568	510	3	1019	40	20	
5	0	0	0	0	568	508	1	1018	40	20	
6	0	0	0	0	555	508	3	1018	40	20	
7	0	0	0	0	534	508	1	1018	40	20	
8	0	0	0	0	515	508	3	1018	40	20	
9	0	0	0	0	501	510	1	1018	40	20	
10	0	0	0	0	496	510	3	1018	40	20	
11	0	0	0	0	502	509	1	704	40	20	
12	0	0	0	0	505	510	3	416	40	20	
13	0	0	0	0	488	509	3	111	40	20	
14	0	0	0	0	454	508	0	0	40	20	
15	0	0	0	0	429	508	2	0	40	20	
0	0	0	0	0	432	509	3	0	40	20	
1	0	0	0	0	451	508	2	0	40	20	
2	0	0	0	0	473	509	1	0	40	20	
3	0	0	0	0	492	512	0	187	40	20	
4	0	0	0	0	508	512	3	615	40	20	
5	0	0	0	0	511	511	1	903	40	20	
6	0	0	0	0	511	511	3	1015	40	20	
7	0	0	0	0	521	508	1	920	40	20	
8	0	0	0	0	526	509	4	792	40	20	
9	0	0	0	0	531	508	1	735	40	20	
10	0	0	0	0	532	508	2	700	40	20	
11	0	0	0	0	535	509	1	562	40	20	
12	0	0	0	0	536	507	3	363	40	20	
13	0	0	0	0	538	504	1	102	40	20	
14	0	0	0	0	537	503	2	0	40	20	
15	0	0	0	0	533	501	1	0	40	20	
0	0	0	0	0	528	503	3	0	40	20	
1	0	0	0	0	523	504	3	0	40	20	
2	0	0	0	0	519	506	1	0	40	20	
3	0	0	0	0	519	507	2	0	40	20	
4	0	0	0	0	519	509	3	728	40	20	
5	0	0	0	0	520	509	3	1018	40	20	
6	0	0	0	0	516	511	1	1018	40	20	
7	0	0	0	0	510	514	3	1018	40	20	
8	0	0	0	0	512	513	4	1019	40	20	
9	0	0	0	0	516	514	3	1018	40	20	
10	0	0	0	0	520	515	0	1018	40	20	
11	0	0	0	0	520	514	2	1017	40	20	
12	0	0	0	0	513	511	3	834	40	20	
13	0	0	0	0	507	510	2	508	40	20	
14	0	0	0	0	513	509	0	148	40	20	
15	0	0	0	0	520	508	2	0	40	20	
0	0	0	0	0	519	507	3	0	40	20	
1	0	0	0	0	508	509	1	0	40	20	
2	0	0	0	0	506	510	2	0	40	20	
3	0	0	0	0	502	510	0	0	40	20	
4	0	0	0	0	505	512	3	0	40	20	
5	0	0	0	0	500	511	1	671	40	20	
6	0	0	0	0	504	511	3	1018	40	20	
7	0	0	0	0	497	512	1	1018	40	20	
8	0	0	0	0	505	512	3	1019	40	20	
9	0	0	0	0	507	510	3	1018	40	20	
10	0	0	0	0	508	510	1	1018	40	20	
11	0	0	0	0	510	510	3	1018	40	20	
12	0	0	0	0	519	508	2	1019	40	20	
13	0	0	0	0	537	508	2	790	40	20	
14	0	0	0	0	544	508	1	505	40	20	
15	0	0	0	0	543	507	2	185	40	20	
0	0	0	0	0	528	504	3	0	40	20	
1	0	0	0	0	524	507	2	0	40	20	
2	0	0	0	0	488	510	1	0	40	20	
3	0	0	0	0	478	511	2	0	40	20	
4	0	0	0	0	483	513	2	0	40	20	
5	0	0	0	0	480	514	2	436	40	20	
6	0	0	0	0	483	516	2	1018	40	20	
7	0	0	0	0	495	515	0	1018	40	20	
8	0	0	0	0	509	514	3	1018	40	20	
9	0	0	0	0	523	513	1	1018	40	20	
10	0	0	0	0	529	515	3	1018	40	20	
11	0	0	0	0	528	516	1	1018	40	20	
12	0	0	0	0	524	512	2	1019	40	20	
13	0	0	0	0	514	512	1	1018	40	20	
14	0	0	0	0	512	512	3	1018	40	20	
15	0	0	0	0	511	511	1	592	40	20	
0	0	0	0	0	523	509	3	263	40	20	
1	0	0	0	0	533	506	0	0	40	20	
2	0	0	0	0	531	506	2	0	40	20	
3	0	0	0	0	529	509	0	0	40	20	
4	0	0	0	0	519	510	2	0	40	20	
5	0	0	0	0	519	511	0	338	40	20	
6	0	0	0	0	515	513	3	943	40	20	
7	0	0	0	0	513	515	1	1018	40	20	
8	0	0	0	0	512	515	3	1019	40	20	
9	0	0	0	0	507	515	0	1018	40	20	
10	0	0	0	0	507	515	3	1018	40	20	
11	0	0	0	0	506	514	0	1018	40	20	
12	0	0	0	0	511	513	2	1018	40	20	
13	0	0	0	0	501	510	1	1018	40	20	
14	0	0	0	0	483	510	3	1017	40	20	
15	0	0	0	0	477	510	0	628	40	20	
0	0	0	0	0	487	508	1	293	40	20	
1	0	0	0	0	508	507	1	0	40	20	
2	0	0	0	0	519	505	2	0	40	20	
3	0	0	0	0	521	508	1	0	40	20	
4	0	0	0	0	527	512	3	0	40	20	
5	0	0	0	0	536	511	2	0	40	20	
6	0	0	0	0	550	511	3	543	40	20	
7	0	0	0	0	541	512	2	1017	40	20	
8	0	0	0	0	533	513	3	1019	40	20	
9	0	0	0	0	531	513	3	1018	40	20	
10	0	0	0	0	516	510	1	1018	40	20	
11	0	0	0	0	504	512	3	1018	40	20	
12	0	0	0	0	500	510	2	1019	40	20	
13	0	0	0	0	515	510	2	1018	40	20	
14	0	0	0	0	527	511	0	1018	40	20	
15	0	0	0	0	543	512	3	1018	40	20	
0	0	0	0	0	530	511	3	687	40	20	
1	0	0	0	0	503	508	3	279	40	20	
2	0	0	0	0	497	508	1	0	40	20	
3	0	0	0	0	483	509	2	0	40	20	
4	0	0	0	0	463	509	3	0	40	20	
5	0	0	0	0	456	510	2	0	40	20	
6	0	0	0	0	445	511	1	0	40	20	
7	0	0	0	0	461	512	2	225	40	20	
8	0	0	0	0	474	512	3	652	40	20	
9	0	0	0	0	492	511	3	966	40	20	
10	0	0	0	0	515	510	1	1018	40	20	
11	0	0	0	0	526	510	3	1017	40	20	
12	0	0	0	0	533	511	3	1019	40	20	
13	0	0	0	0	537	510	1	1018	40	20	
14	0	0	0	0	542	511	2	1018	40	20	
15	0	0	0	0	545	511	2	896	40	20	
0	0	0	0	0	541	511	3	642	40	20	
1	0	0	0	0	538	508	1	321	40	20	
2	0	0	0	0	541	507	1	0	40	20	
3	0	0	0	0	538	507	2	0	40	20	
4	0	0	0	0	535	508	3	0	40	20	
5	0	0	0	0	528	509	0	0	40	20	
6	0	0	0	0	519	510	3	0	40	20	
7	0	0	0	0	519	512	0	0	40	20	
8	0	0	0	0	498	512	3	583	40	20	
9	0	0	0	0	487	514	1	975	40	20	
10	0	0	0	0	492	514	2	1018	40	20	
11	0	0	0	0	496	514	1	1018	40	20	
12	0	0	0	0	498	512	2	1018	40	20	
13	0	0	0	0	499	512	2	1018	40	20	
14	0	0	0	0	503	514	1	1018	40	20	
