# OpenSignals Text File Format. Version 1
# {"0C:43:14:1C:2A:02": {"position": 0, "device": "bitalino_rev", "device name": "0C:43:14:1C:2A:02", "device connection": "BTH0C:43:14:1C:2A:02", "sampling rate": 1000, "resolution": [4, 1, 1, 1, 1, 10, 10, 10, 10, 6, 6], "firmware version": 1282, "comments": "", "keywords": "", "mode": 0, "sync interval": 2, "date": "2026-4-17", "time": "12:54:21.596", "channels": [1, 2, 3, 4, 5, 6], "sensor": ["RAW", "RAW", "RAW", "RAW", "RAW", "RAW"], "label": ["A1", "A2", "A3", "A4", "A5", "A6"], "column": ["nSeq", "I1", "I2", "O1", "O2", "A1", "A2", "A3", "A4", "A5", "A6"], "special": [{}, {}, {}, {}, {}, {}], "digital IO": [0, 0, 1, 1]}}
# EndOfHeader
0	0	0	0	0	512	509	0	1018	40	21	
1	0	0	0	0	512	508	0	1018	40	21	
2	0	0	0	0	511	504	0	1018	40	21	
3	0	0	0	0	502	500	0	0	40	21	
4	0	0	0	0	503	499	0	0	40	21	
5	0	0	0	0	508	499	0	0	40	21	
6	0	0	0	0	516	503	0	0	40	21	
7	0	0	0	0	520	508	0	0	40	21	
8	0	0	0	0	521	513	3	0	40	21	
9	0	0	0	0	523	516	1	0	40	21	
10	0	0	0	0	525	519	3	0	40	21	
11	0	0	0	0	522	519	3	0	40	21	
12	0	0	0	0	516	519	4	1019	40	21	
13	0	0	0	0	512	514	3	1018	40	21	
14	0	0	0	0	507	512	3	1018	40	21	
15	0	0	0	0	512	512	2	1018	40	21	
0	0	0	0	0	512	512	3	1019	40	21	
1	0	0	0	0	512	510	2	1018	40	21	
2	0	0	0	0	506	505	1	1018	40	21	
3	0	0	0	0	498	502	1	1018	40	21	
4	0	0	0	0	502	501	3	0	40	21	
5	0	0	0	0	501	499	1	0	40	21	
6	0	0	0	0	507	501	1	0	40	21	
7	0	0	0	0	511	506	0	0	40	21	
8	0	0	0	0	516	512	1	0	40	21	
9	0	0	0	0	522	516	1	0	40	21	
10	0	0	0	0	524	519	1	0	40	21	
11	0	0	0	0	524	520	1	0	40	21	
12	0	0	0	0	519	519	2	0	40	21	
13	0	0	0	0	517	518	2	1018	40	21	
14	0	0	0	0	513	512	3	1018	40	21	
15	0	0	0	0	514	515	2	1018	40	21	
0	0	0	0	0	513	515	3	1019	40	21	
1	0	0	0	0	511	508	2	1018	40	21	
2	0	0	0	0	508	507	1	1018	40	21	
3	0	0	0	0	509	504	0	1018	40	21	
4	0	0	0	0	503	498	2	0	40	21	
5	0	0	0	0	499	497	0	0	40	21	
6	0	0	0	0	499	494	0	0	40	21	
7	0	0	0	0	507	499	0	0	40	21	
8	0	0	0	0	512	506	3	0	40	21	
9	0	0	0	0	518	511	2	0	40	21	
10	0	0	0	0	521	515	3	0	40	21	
11	0	0	0	0	522	518	3	0	40	21	
12	0	0	0	0	522	519	4	0	40	21	
13	0	0	0	0	520	516	3	0	40	21	
14	0	0	0	0	516	513	4	1018	40	21	
15	0	0	0	0	513	512	2	1018	40	21	
0	0	0	0	0	511	511	2	1018	40	21	
1	0	0	0	0	514	511	1	1018	40	21	
2	0	0	0	0	509	509	1	1018	40	21	
3	0	0	0	0	507	506	0	1018	40	21	
4	0	0	0	0	504	504	1	365	40	21	
5	0	0	0	0	499	499	0	0	40	21	
6	0	0	0	0	498	499	0	0	40	21	
7	0	0	0	0	504	499	1	0	40	21	
8	0	0	0	0	508	502	1	0	40	21	
9	0	0	0	0	513	507	2	0	40	21	
10	0	0	0	0	520	511	2	0	40	21	
11	0	0	0	0	521	517	2	0	40	21	
12	0	0	0	0	524	519	4	0	40	21	
13	0	0	0	0	523	516	4	0	40	21	
14	0	0	0	0	520	515	3	1018	40	21	
15	0	0	0	0	518	512	2	1018	40	21	
0	0	0	0	0	515	513	2	1019	40	21	
1	0	0	0	0	516	512	1	1018	40	21	
2	0	0	0	0	515	512	0	1018	40	21	
3	0	0	0	0	510	510	0	1018	40	21	
4	0	0	0	0	507	507	1	1018	40	21	
5	0	0	0	0	503	504	0	1018	40	21	
6	0	0	0	0	503	500	1	0	40	21	
7	0	0	0	0	502	497	1	0	40	21	
8	0	0	0	0	507	499	0	0	40	21	
9	0	0	0	0	506	503	1	0	40	21	
10	0	0	0	0	510	511	2	0	40	21	
11	0	0	0	0	524	515	2	0	40	21	
12	0	0	0	0	524	519	3	0	40	21	
13	0	0	0	0	519	519	2	0	40	21	
14	0	0	0	0	520	519	2	1018	40	21	
15	0	0	0	0	519	519	1	1018	40	21	
0	0	0	0	0	515	514	5	1019	40	21	
1	0	0	0	0	515	514	1	1018	40	21	
2	0	0	0	0	515	516	3	1018	40	21	
3	0	0	0	0	510	514	2	1018	40	21	
4	0	0	0	0	510	511	3	1019	40	21	
5	0	0	0	0	505	505	1	1018	40	21	
6	0	0	0	0	503	504	1	1018	40	21	
7	0	0	0	0	499	501	1	0	40	21	
8	0	0	0	0	501	499	1	0	40	21	
9	0	0	0	0	504	502	1	0	40	21	
10	0	0	0	0	510	508	0	0	40	21	
11	0	0	0	0	520	514	0	0	40	21	
12	0	0	0	0	525	518	3	0	40	21	
13	0	0	0	0	521	520	1	0	40	21	
14	0	0	0	0	523	522	1	0	40	21	
15	0	0	0	0	523	519	3	1018	40	21	
0	0	0	0	0	519	516	3	1018	40	21	
1	0	0	0	0	514	515	3	1018	40	21	
2	0	0	0	0	515	513	3	1018	40	21	
3	0	0	0	0	516	513	2	1018	40	21	
4	0	0	0	0	511	510	1	1019	40	21	
5	0	0	0	0	507	509	1	1018	40	21	
6	0	0	0	0	504	505	0	1018	40	21	
7	0	0	0	0	501	502	0	1017	40	21	
8	0	0	0	0	501	500	1	0	40	21	
9	0	0	0	0	503	500	0	0	40	21	
10	0	0	0	0	508	505	2	0	40	21	
11	0	0	0	0	512	511	1	0	40	21	
12	0	0	0	0	517	515	2	0	40	21	
13	0	0	0	0	519	519	3	0	40	21	
14	0	0	0	0	521	520	3	0	40	21	
15	0	0	0	0	521	518	2	0	40	21	
0	0	0	0	0	519	518	3	1019	40	21	
1	0	0	0	0	520	515	2	1018	40	21	
2	0	0	0	0	517	514	1	1018	40	21	
3	0	0	0	0	512	516	1	1018	40	21	
4	0	0	0	0	510	514	3	1018	40	21	
5	0	0	0	0	508	510	0	1018	40	21	
6	0	0	0	0	506	508	2	1018	40	21	
7	0	0	0	0	502	505	1	1018	40	21	
8	0	0	0	0	500	502	2	0	40	21	
9	0	0	0	0	500	499	1	0	40	21	
10	0	0	0	0	500	500	1	0	40	21	
11	0	0	0	0	505	507	1	0	40	21	
12	0	0	0	0	514	512	1	0	40	21	
13	0	0	0	0	515	517	1	0	40	21	
14	0	0	0	0	521	518	2	0	40	21	
15	0	0	0	0	520	519	1	0	40	21	
0	0	0	0	0	517	520	5	0	40	21	
1	0	0	0	0	513	517	1	1018	40	21	
2	0	0	0	0	511	513	3	1018	40	21	
3	0	0	0	0	511	513	3	1018	40	21	
4	0	0	0	0	513	512	1	1019	40	21	
5	0	0	0	0	509	510	2	1018	40	21	
6	0	0	0	0	507	509	2	1018	40	21	
7	0	0	0	0	506	507	2	1018	40	21	
8	0	0	0	0	505	504	2	1017	40	21	
9	0	0	0	0	502	502	0	0	40	21	
10	0	0	0	0	500	502	0	0	40	21	
11	0	0	0	0	507	505	0	0	40	21	
12	0	0	0	0	510	508	2	0	40	21	
13	0	0	0	0	520	512	1	0	40	21	
14	0	0	0	0	524	517	1	0	40	21	
15	0	0	0	0	525	520	1	0	40	21	
0	0	0	0	0	531	519	3	0	40	21	
1	0	0	0	0	531	516	3	1018	40	21	
2	0	0	0	0	530	515	2	1018	40	21	
3	0	0	0	0	531	513	1	1018	40	21	
4	0	0	0	0	531	513	3	1018	40	21	
5	0	0	0	0	527	512	0	1018	40	21	
6	0	0	0	0	524	510	0	1018	40	21	
7	0	0	0	0	518	508	0	1018	40	21	
8	0	0	0	0	514	504	1	1019	40	21	
9	0	0	0	0	511	499	0	0	40	21	
10	0	0	0	0	504	499	0	0	40	21	
11	0	0	0	0	503	500	0	0	40	21	
12	0	0	0	0	507	505	1	0	40	21	
13	0	0	0	0	515	512	0	0	40	21	
14	0	0	0	0	518	515	1	0	40	21	
15	0	0	0	0	518	519	1	0	40	21	
0	0	0	0	0	519	523	4	0	40	21	
1	0	0	0	0	517	520	2	0	40	21	
2	0	0	0	0	513	518	2	1018	40	21	
3	0	0	0	0	510	515	3	1018	40	21	
4	0	0	0	0	508	514	2	1018	40	21	
5	0	0	0	0	508	513	3	1018	40	21	
6	0	0	0	0	506	512	3	1018	40	21	
7	0	0	0	0	501	508	2	1018	40	21	
8	0	0	0	0	498	504	2	1018	40	21	
9	0	0	0	0	498	502	1	1018	40	21	
10	0	0	0	0	498	500	1	0	40	21	
11	0	0	0	0	497	498	2	0	40	21	
12	0	0	0	0	500	500	2	0	40	21	
13	0	0	0	0	510	505	2	0	40	21	
14	0	0	0	0	512	509	2	0	40	21	
15	0	0	0	0	518	512	3	0	40	21	
0	0	0	0	0	520	513	3	0	40	21	
1	0	0	0	0	518	515	3	0	40	21	
2	0	0	0	0	513	512	3	856	40	21	
3	0	0	0	0	519	511	2	1018	40	21	
4	0	0	0	0	515	508	3	1019	40	21	
5	0	0	0	0	512	510	1	1018	40	21	
6	0	0	0	0	512	512	1	1018	40	21	
7	0	0	0	0	506	511	0	1018	40	21	
8	0	0	0	0	504	510	1	1019	40	21	
9	0	0	0	0	504	505	0	1018	40	21	
10	0	0	0	0	500	500	0	0	40	21	
11	0	0	0	0	499	498	0	0	40	21	
12	0	0	0	0	500	496	1	0	40	21	
13	0	0	0	0	507	498	0	0	40	21	
14	0	0	0	0	514	504	0	0	40	21	
15	0	0	0	0	519	510	0	0	40	21	
0	0	0	0	0	524	514	2	0	40	21	
1	0	0	0	0	524	516	1	0	40	21	
2	0	0	0	0	523	517	1	0	40	21	
3	0	0	0	0	521	516	2	1018	40	21	
4	0	0	0	0	515	515	4	1019	40	21	
5	0	0	0	0	512	512	2	1018	40	21	
6	0	0	0	0	516	512	3	1018	40	21	
7	0	0	0	0	514	511	2	1018	40	21	
8	0	0	0	0	509	508	3	1019	40	21	
9	0	0	0	0	509	505	2	1018	40	21	
10	0	0	0	0	508	504	1	1018	40	21	
11	0	0	0	0	503	503	1	0	40	21	
12	0	0	0	0	502	499	0	0	40	21	
13	0	0	0	0	504	498	1	0	40	21	
14	0	0	0	0	512	503	0	0	40	21	
15	0	0	0	0	522	510	0	0	40	21	
0	0	0	0	0	524	516	2	0	40	21	
1	0	0	0	0	527	519	0	0	40	21	
2	0	0	0	0	525	521	2	0	40	21	
3	0	0	0	0	527	520	3	0	40	21	
4	0	0	0	0	522	517	3	1018	40	21	
5	0	0	0	0	516	512	3	1019	40	21	
6	0	0	0	0	516	513	3	1018	40	21	
7	0	0	0	0	512	514	3	1018	40	21	
8	0	0	0	0	508	512	2	1019	40	21	
9	0	0	0	0	505	511	1	1018	40	21	
10	0	0	0	0	502	508	0	1018	40	21	
11	0	0	0	0	502	505	0	1018	40	21	
12	0	0	0	0	499	501	1	0	40	21	
13	0	0	0	0	499	498	0	0	40	21	
14	0	0	0	0	508	501	0	0	40	21	
15	0	0	0	0	510	507	0	0	40	21	
0	0	0	0	0	515	511	3	0	40	21	
1	0	0	0	0	519	514	1	0	40	21	
2	0	0	0	0	526	518	3	0	40	21	
3	0	0	0	0	525	519	3	0	40	21	
4	0	0	0	0	523	516	5	1019	40	21	
5	0	0	0	0	519	515	4	1018	40	21	
6	0	0	0	0	518	512	3	1018	40	21	
7	0	0	0	0	519	512	3	1018	40	21	
8	0	0	0	0	518	512	3	1019	40	21	
9	0	0	0	0	512	508	3	1018	40	21	
10	0	0	0	0	511	506	2	1018	40	21	
11	0	0	0	0	505	505	2	1018	40	21	
12	0	0	0	0	504	503	3	1019	40	21	
13	0	0	0	0	499	497	1	1018	40	21	
14	0	0	0	0	501	496	1	0	40	21	
15	0	0	0	0	507	503	1	0	40	21	
0	0	0	0	0	514	509	1	0	40	21	
1	0	0	0	0	517	512	2	0	40	21	
2	0	0	0	0	521	516	1	0	40	21	
3	0	0	0	0	521	519	1	0	40	21	
4	0	0	0	0	520	519	4	0	40	21	
5	0	0	0	0	519	517	2	1018	40	21	
6	0	0	0	0	516	516	3	1018	40	21	
7	0	0	0	0	512	514	3	1018	40	21	
8	0	0	0	0	511	514	2	1018	40	21	
9	0	0	0	0	512	513	3	1018	40	21	
10	0	0	0	0	512	511	3	1018	40	21	
11	0	0	0	0	507	508	2	1018	40	21	
12	0	0	0	0	503	503	2	1018	40	21	
13	0	0	0	0	500	499	1	1018	40	21	
14	0	0	0	0	498	496	0	0	40	21	
15	0	0	0	0	501	497	0	0	40	21	
0	0	0	0	0	507	502	2	0	40	21	
1	0	0	0	0	515	507	0	0	40	21	
2	0	0	0	0	518	513	3	0	40	21	
3	0	0	0	0	522	516	3	0	40	21	
4	0	0	0	0	526	516	4	0	40	21	
5	0	0	0	0	524	517	3	0	40	21	
6	0	0	0	0	521	516	3	1018	40	21	
7	0	0	0	0	515	513	3	1018	40	21	
8	0	0	0	0	517	510	3	1018	40	21	
9	0	0	0	0	515	512	3	1018	40	21	
10	0	0	0	0	513	511	3	1018	40	21	
11	0	0	0	0	512	511	2	1018	40	21	
12	0	0	0	0	505	507	1	1018	40	21	
13	0	0	0	0	501	501	2	1018	40	21	
14	0	0	0	0	499	501	1	0	40	21	
15	0	0	0	0	498	502	1	0	40	21	
0	0	0	0	0	504	503	0	0	40	21	
1	0	0	0	0	510	508	2	0	40	21	
2	0	0	0	0	517	513	1	0	40	21	
3	0	0	0	0	519	516	1	0	40	21	
4	0	0	0	0	520	519	3	0	40	21	
5	0	0	0	0	522	516	2	0	40	21	
6	0	0	0	0	519	515	2	0	40	21	
7	0	0	0	0	515	514	2	1018	40	21	
8	0	0	0	0	515	512	3	1019	40	21	
9	0	0	0	0	515	513	2	1018	40	21	
10	0	0	0	0	518	513	1	1018	40	21	
11	0	0	0	0	512	511	1	1018	40	21	
12	0	0	0	0	508	509	2	1019	40	21	
13	0	0	0	0	504	504	0	1018	40	21	
14	0	0	0	0	497	504	0	1018	40	21	
15	0	0	0	0	498	502	0	0	40	21	
0	0	0	0	0	501	500	1	0	40	21	
1	0	0	0	0	508	502	0	0	40	21	
2	0	0	0	0	515	507	0	0	40	21	
3	0	0	0	0	520	513	0	0	40	21	
4	0	0	0	0	523	516	2	0	40	21	
5	0	0	0	0	524	516	1	0	40	21	
6	0	0	0	0	524	518	1	0	40	21	
7	0	0	0	0	520	518	2	1018	40	21	
8	0	0	0	0	517	515	3	1018	40	21	
9	0	0	0	0	516	515	1	1018	40	21	
10	0	0	0	0	515	516	1	1018	40	21	
11	0	0	0	0	515	517	0	1018	40	21	
12	0	0	0	0	511	512	1	1018	40	21	
13	0	0	0	0	506	508	0	1018	40	21	
14	0	0	0	0	504	504	2	1018	40	21	
15	0	0	0	0	499	501	1	1018	40	21	
0	0	0	0	0	500	497	0	0	40	21	
1	0	0	0	0	503	496	1	0	40	21	
2	0	0	0	0	507	503	1	0	40	21	
3	0	0	0	0	515	507	2	0	40	21	
4	0	0	0	0	519	511	3	0	40	21	
5	0	0	0	0	520	514	3	0	40	21	
6	0	0	0	0	523	518	3	0	40	21	
7	0	0	0	0	524	519	2	0	40	21	
8	0	0	0	0	520	516	5	1018	40	21	
9	0	0	0	0	515	513	2	1019	40	21	
10	0	0	0	0	514	513	1	1018	40	21	
11	0	0	0	0	513	513	1	1018	40	21	
12	0	0	0	0	512	511	3	1019	40	21	
13	0	0	0	0	510	508	1	1018	40	21	
14	0	0	0	0	504	505	0	1018	40	21	
15	0	0	0	0	501	503	0	1018	40	21	
0	0	0	0	0	502	500	1	0	40	21	
1	0	0	0	0	499	499	0	0	40	21	
2	0	0	0	0	503	500	0	0	40	21	
3	0	0	0	0	511	506	0	0	40	21	
4	0	0	0	0	514	511	1	0	40	21	
5	0	0	0	0	519	515	1	0	40	21	
6	0	0	0	0	522	519	3	0	40	21	
7	0	0	0	0	519	520	3	0	40	21	
8	0	0	0	0	519	519	2	0	40	21	
9	0	0	0	0	517	518	3	1018	40	21	
10	0	0	0	0	515	515	3	1018	40	21	
11	0	0	0	0	516	515	3	1018	40	21	
12	0	0	0	0	519	516	4	1019	40	21	
13	0	0	0	0	512	512	2	1018	40	21	
14	0	0	0	0	512	510	1	1018	40	21	
15	0	0	0	0	507	508	0	0	40	21	
0	0	0	0	0	502	505	1	0	40	21	
1	0	0	0	0	503	502	0	0	40	21	
2	0	0	0	0	503	499	0	0	40	21	
3	0	0	0	0	511	505	0	0	40	21	
4	0	0	0	0	515	511	3	0	40	21	
5	0	0	0	0	518	513	2	0	40	21	
6	0	0	0	0	522	515	3	0	40	21	
7	0	0	0	0	517	516	3	0	40	21	
8	0	0	0	0	521	516	3	0	40	21	
9	0	0	0	0	520	518	3	1018	40	21	
10	0	0	0	0	515	518	4	1018	40	21	
11	0	0	0	0	512	516	3	1018	40	21	
12	0	0	0	0	516	518	3	1019	40	21	
13	0	0	0	0	518	515	1	1018	40	21	
14	0	0	0	0	515	513	0	1018	40	21	
15	0	0	0	0	506	511	0	1018	40	21	
0	0	0	0	0	506	505	1	1019	40	21	
1	0	0	0	0	504	502	0	0	40	21	
2	0	0	0	0	501	501	1	0	40	21	
3	0	0	0	0	505	502	1	0	40	21	
4	0	0	0	0	509	505	1	0	40	21	
5	0	0	0	0	514	512	2	0	40	21	
6	0	0	0	0	520	517	3	0	40	21	
7	0	0	0	0	518	520	2	0	40	21	
8	0	0	0	0	521	519	3	0	40	21	
9	0	0	0	0	521	517	2	0	40	21	
10	0	0	0	0	516	513	2	1018	40	21	
11	0	0	0	0	513	513	1	1018	40	21	
12	0	0	0	0	515	513	3	1018	40	21	
13	0	0	0	0	515	510	1	1018	40	21	
14	0	0	0	0	509	508	3	1018	40	21	
15	0	0	0	0	511	505	2	1018	40	21	
0	0	0	0	0	507	503	0	1017	40	21	
1	0	0	0	0	504	500	1	1018	40	21	
2	0	0	0	0	503	499	1	0	40	21	
3	0	0	0	0	499	500	0	0	40	21	
4	0	0	0	0	503	501	2	0	40	21	
5	0	0	0	0	514	508	0	0	40	21	
6	0	0	0	0	519	513	0	0	40	21	
7	0	0	0	0	524	518	0	0	40	21	
8	0	0	0	0	522	519	4	0	40	21	
9	0	0	0	0	523	519	2	0	40	21	
10	0	0	0	0	526	518	3	673	40	21	
11	0	0	0	0	521	516	3	1018	40	21	
12	0	0	0	0	517	511	3	1019	40	21	
13	0	0	0	0	516	512	3	1018	40	21	
14	0	0	0	0	515	513	2	1018	40	21	
15	0	0	0	0	509	512	1	1018	40	21	
0	0	0	0	0	509	511	2	1019	40	21	
1	0	0	0	0	507	507	0	1018	40	21	
2	0	0	0	0	499	502	0	376	40	21	
3	0	0	0	0	498	500	0	0	40	21	
4	0	0	0	0	503	498	2	0	40	21	
5	0	0	0	0	507	502	2	0	40	21	
6	0	0	0	0	515	510	2	0	40	21	
7	0	0	0	0	521	515	3	0	40	21	
8	0	0	0	0	521	519	3	0	40	21	
9	0	0	0	0	519	519	4	0	40	21	
10	0	0	0	0	524	518	3	0	40	21	
11	0	0	0	0	521	517	2	1018	40	21	
12	0	0	0	0	519	516	3	1019	40	21	
13	0	0	0	0	521	514	2	1018	40	21	
14	0	0	0	0	517	514	2	1018	40	21	
15	0	0	0	0	513	512	1	1018	40	21	
0	0	0	0	0	509	508	2	1018	40	21	
1	0	0	0	0	504	506	0	1018	40	21	
2	0	0	0	0	507	503	0	1018	40	21	
3	0	0	0	0	506	500	0	1017	40	21	
4	0	0	0	0	500	501	1	0	40	21	
5	0	0	0	0	503	501	0	0	40	21	
6	0	0	0	0	508	507	0	0	40	21	
7	0	0	0	0	515	510	2	0	40	21	
8	0	0	0	0	519	515	1	0	40	21	
9	0	0	0	0	520	516	2	0	40	21	
10	0	0	0	0	523	519	3	0	40	21	
11	0	0	0	0	519	519	3	521	40	21	
12	0	0	0	0	517	516	4	1018	40	21	
13	0	0	0	0	515	512	2	1019	40	21	
14	0	0	0	0	517	513	1	1018	40	21	
15	0	0	0	0	512	513	2	1018	40	21	
0	0	0	0	0	511	512	2	1019	40	21	
1	0	0	0	0	509	510	0	1018	40	21	
2	0	0	0	0	504	506	2	1018	40	21	
3	0	0	0	0	503	505	1	1018	40	21	
4	0	0	0	0	502	501	1	220	40	21	
5	0	0	0	0	498	499	1	0	40	21	
6	0	0	0	0	503	503	2	0	40	21	
7	0	0	0	0	511	510	1	0	40	21	
8	0	0	0	0	518	514	2	0	40	21	
9	0	0	0	0	523	514	1	0	40	21	
10	0	0	0	0	526	518	1	0	40	21	
11	0	0	0	0	521	521	1	0	40	21	
12	0	0	0	0	520	520	5	1018	40	21	
13	0	0	0	0	518	516	1	1018	40	21	
14	0	0	0	0	513	513	3	1018	40	21	
15	0	0	0	0	511	515	2	1018	40	21	
0	0	0	0	0	512	512	3	1018	40	21	
1	0	0	0	0	508	511	3	1019	40	21	
2	0	0	0	0	505	508	0	1018	40	21	
3	0	0	0	0	503	505	0	1018	40	21	
4	0	0	0	0	503	500	2	1018	40	21	
5	0	0	0	0	501	499	0	0	40	21	
6	0	0	0	0	504	499	0	0	40	21	
7	0	0	0	0	510	505	0	0	40	21	
8	0	0	0	0	515	512	3	0	40	21	
9	0	0	0	0	520	514	3	0	40	21	
10	0	0	0	0	524	518	3	0	40	21	
11	0	0	0	0	525	518	3	0	40	21	
12	0	0	0	0	525	519	3	0	40	21	
13	0	0	0	0	518	516	3	1018	40	21	
14	0	0	0	0	516	513	2	1018	40	21	
15	0	0	0	0	515	512	1	1018	40	21	
0	0	0	0	0	512	511	3	1019	40	21	
1	0	0	0	0	510	509	0	1018	40	21	
2	0	0	0	0	506	508	1	1018	40	21	
3	0	0	0	0	504	507	2	1018	40	21	
4	0	0	0	0	502	504	0	1018	40	21	
5	0	0	0	0	499	502	1	1018	40	21	
6	0	0	0	0	499	500	1	0	40	21	
7	0	0	0	0	504	500	1	0	40	21	
8	0	0	0	0	511	503	2	0	40	21	
9	0	0	0	0	514	508	2	0	40	21	
10	0	0	0	0	516	512	3	0	40	21	
11	0	0	0	0	523	516	1	0	40	21	
12	0	0	0	0	524	517	3	0	40	21	
13	0	0	0	0	521	516	2	613	40	21	
14	0	0	0	0	519	514	2	1018	40	21	
15	0	0	0	0	515	512	1	1018	40	21	
0	0	0	0	0	515	511	2	1018	40	21	
1	0	0	0	0	513	511	2	1018	40	21	
2	0	0	0	0	508	509	3	1018	40	21	
3	0	0	0	0	508	508	2	1018	40	21	
4	0	0	0	0	504	504	3	1019	40	21	
5	0	0	0	0	504	499	1	1018	40	21	
6	0	0	0	0	504	499	1	0	40	21	
7	0	0	0	0	505	500	0	0	40	21	
8	0	0	0	0	508	503	1	0	40	21	
9	0	0	0	0	514	507	0	0	40	21	
10	0	0	0	0	519	512	0	0	40	21	
11	0	0	0	0	526	516	0	0	40	21	
12	0	0	0	0	523	517	4	0	40	21	
13	0	0	0	0	518	516	2	0	40	21	
14	0	0	0	0	518	517	3	1018	40	21	
15	0	0	0	0	525	516	3	1018	40	21	
0	0	0	0	0	518	513	3	1019	40	21	
1	0	0	0	0	515	512	3	1018	40	21	
2	0	0	0	0	515	512	3	1018	40	21	
3	0	0	0	0	507	511	2	1018	40	21	
4	0	0	0	0	504	510	1	1019	40	21	
5	0	0	0	0	501	506	1	1018	40	21	
6	0	0	0	0	499	504	0	1018	40	21	
7	0	0	0	0	498	502	0	0	40	21	
8	0	0	0	0	503	501	1	0	40	21	
9	0	0	0	0	508	504	0	0	40	21	
10	0	0	0	0	512	508	2	0	40	21	
11	0	0	0	0	513	514	2	0	40	21	
12	0	0	0	0	520	515	3	0	40	21	
13	0	0	0	0	523	519	3	0	40	21	
14	0	0	0	0	520	519	4	0	40	21	
15	0	0	0	0	521	520	4	1018	40	21	
0	0	0	0	0	516	516	3	1018	40	21	
1	0	0	0	0	516	514	2	1018	40	21	
2	0	0	0	0	515	514	1	1018	40	21	
3	0	0	0	0	510	514	0	1018	40	21	
4	0	0	0	0	510	510	2	1018	40	21	
5	0	0	0	0	508	507	0	1018	40	21	
6	0	0	0	0	503	503	0	1018	40	21	
7	0	0	0	0	500	499	0	191	40	21	
8	0	0	0	0	500	498	1	0	40	21	
9	0	0	0	0	503	499	0	0	40	21	
10	0	0	0	0	509	503	2	0	40	21	
11	0	0	0	0	516	507	2	0	40	21	
12	0	0	0	0	519	513	1	0	40	21	
13	0	0	0	0	523	516	3	0	40	21	
14	0	0	0	0	523	517	3	0	40	21	
15	0	0	0	0	521	516	3	0	40	21	
0	0	0	0	0	522	514	5	1019	40	21	
1	0	0	0	0	517	513	3	1018	40	21	
2	0	0	0	0	516	511	3	1018	40	21	
3	0	0	0	0	514	515	2	1018	40	21	
4	0	0	0	0	512	512	3	1019	40	21	
5	0	0	0	0	511	509	1	1018	40	21	
6	0	0	0	0	506	506	0	1018	40	21	
7	0	0	0	0	504	502	0	1018	40	21	
8	0	0	0	0	503	499	2	1018	40	21	
9	0	0	0	0	500	499	1	0	40	21	
10	0	0	0	0	505	504	1	0	40	21	
11	0	0	0	0	511	510	2	0	40	21	
12	0	0	0	0	517	515	2	0	40	21	
13	0	0	0	0	521	519	3	0	40	21	
14	0	0	0	0	524	522	2	0	40	21	
15	0	0	0	0	522	520	2	0	40	21	
0	0	0	0	0	519	518	4	1017	40	21	
1	0	0	0	0	517	517	1	1018	40	21	
2	0	0	0	0	514	515	2	1018	40	21	
3	0	0	0	0	513	515	1	1018	40	21	
4	0	0	0	0	511	515	4	1019	40	21	
5	0	0	0	0	508	511	3	1018	40	21	
6	0	0	0	0	509	509	2	1018	40	21	
7	0	0	0	0	506	507	1	1018	40	21	
8	0	0	0	0	503	503	3	1019	40	21	
9	0	0	0	0	502	498	1	1018	40	21	
10	0	0	0	0	500	497	1	0	40	21	
11	0	0	0	0	508	503	1	0	40	21	
12	0	0	0	0	514	509	1	0	40	21	
13	0	0	0	0	517	513	3	0	40	21	
14	0	0	0	0	518	515	3	0	40	21	
15	0	0	0	0	519	518	2	0	40	21	
0	0	0	0	0	521	520	3	0	40	21	
1	0	0	0	0	517	515	3	1018	40	21	
2	0	0	0	0	516	513	2	1018	40	21	
3	0	0	0	0	515	512	1	1018	40	21	
4	0	0	0	0	513	513	3	1019	40	21	
5	0	0	0	0	511	513	1	1018	40	21	
6	0	0	0	0	512	510	0	1018	40	21	
7	0	0	0	0	510	508	0	1018	40	21	
8	0	0	0	0	502	504	1	1018	40	21	
9	0	0	0	0	499	501	0	1018	40	21	
10	0	0	0	0	499	502	0	0	40	21	
11	0	0	0	0	503	502	0	0	40	21	
12	0	0	0	0	508	506	1	0	40	21	
13	0	0	0	0	510	510	0	0	40	21	
14	0	0	0	0	519	515	1	0	40	21	
15	0	0	0	0	522	519	1	0	40	21	
0	0	0	0	0	524	520	2	0	40	21	
1	0	0	0	0	526	519	3	1018	40	21	
2	0	0	0	0	522	516	3	1018	40	21	
3	0	0	0	0	518	514	3	1018	40	21	
4	0	0	0	0	516	511	2	1019	40	21	
5	0	0	0	0	516	511	3	1018	40	21	
6	0	0	0	0	512	511	3	1018	40	21	
7	0	0	0	0	511	509	2	1018	40	21	
8	0	0	0	0	506	504	2	1017	40	21	
9	0	0	0	0	502	500	1	1018	40	21	
10	0	0	0	0	502	499	1	0	40	21	
11	0	0	0	0	501	498	1	0	40	21	
12	0	0	0	0	506	497	0	0	40	21	
13	0	0	0	0	509	504	1	0	40	21	
14	0	0	0	0	513	509	0	0	40	21	
15	0	0	0	0	520	515	1	0	40	21	
0	0	0	0	0	518	518	4	0	40	21	
1	0	0	0	0	519	519	1	0	40	21	
2	0	0	0	0	520	517	3	1018	40	21	
3	0	0	0	0	516	516	3	1018	40	21	
4	0	0	0	0	517	514	4	1019	40	21	
5	0	0	0	0	513	516	3	1018	40	21	
6	0	0	0	0	515	516	3	1018	40	21	
7	0	0	0	0	513	513	2	1018	40	21	
8	0	0	0	0	508	510	1	1019	40	21	
9	0	0	0	0	511	507	2	1018	40	21	
10	0	0	0	0	505	504	2	1018	40	21	
11	0	0	0	0	504	500	1	0	40	21	
12	0	0	0	0	507	500	2	0	40	21	
13	0	0	0	0	510	504	1	0	40	21	
14	0	0	0	0	514	509	1	0	40	21	
15	0	0	0	0	519	514	1	0	40	21	
0	0	0	0	0	522	515	3	0	40	21	
1	0	0	0	0	524	516	3	0	40	21	
2	0	0	0	0	521	516	2	0	40	21	
3	0	0	0	0	521	515	2	1018	40	21	
4	0	0	0	0	517	512	4	1018	40	21	
5	0	0	0	0	515	511	2	1018	40	21	
6	0	0	0	0	518	512	1	1018	40	21	
7	0	0	0	0	516	513	1	1018	40	21	
8	0	0	0	0	510	512	2	1019	40	21	
9	0	0	0	0	505	507	0	1018	40	21	
10	0	0	0	0	503	503	0	1018	40	21	
11	0	0	0	0	502	500	0	259	40	21	
12	0	0	0	0	504	499	2	0	40	21	
13	0	0	0	0	504	499	1	0	40	21	
14	0	0	0	0	510	505	2	0	40	21	
15	0	0	0	0	515	510	2	0	40	21	
0	0	0	0	0	521	514	2	0	40	21	
1	0	0	0	0	523	517	3	0	40	21	
2	0	0	0	0	521	520	3	0	40	21	
3	0	0	0	0	523	521	2	0	40	21	
4	0	0	0	0	520	518	4	1018	40	21	
5	0	0	0	0	513	512	2	1018	40	21	
6	0	0	0	0	516	513	1	1018	40	21	
7	0	0	0	0	513	513	0	1018	40	21	
8	0	0	0	0	513	512	2	1018	40	21	
9	0	0	0	0	508	511	0	1019	40	21	
10	0	0	0	0	502	508	2	1018	40	21	
11	0	0	0	0	501	504	1	1017	40	21	
12	0	0	0	0	499	501	1	0	40	21	
13	0	0	0	0	496	500	1	0	40	21	
14	0	0	0	0	504	504	1	0	40	21	
15	0	0	0	0	515	507	1	0	40	21	
0	0	0	0	0	518	513	1	0	40	21	
1	0	0	0	0	523	517	2	0	40	21	
2	0	0	0	0	523	520	2	0	40	21	
3	0	0	0	0	521	521	1	0	40	21	
4	0	0	0	0	520	520	5	1019	40	21	
5	0	0	0	0	517	517	1	1018	40	21	
6	0	0	0	0	515	513	2	1018	40	21	
7	0	0	0	0	512	513	2	1018	40	21	
8	0	0	0	0	511	512	3	1019	40	21	
9	0	0	0	0	506	510	2	1019	40	21	
10	0	0	0	0	500	508	1	1018	40	21	
11	0	0	0	0	501	505	2	1018	40	21	
12	0	0	0	0	497	501	1	1017	40	21	
13	0	0	0	0	498	498	1	0	40	21	
14	0	0	0	0	500	497	0	0	40	21	
15	0	0	0	0	508	504	0	0	40	21	
0	0	0	0	0	512	508	2	0	40	21	
1	0	0	0	0	514	514	1	0	40	21	
2	0	0	0	0	522	518	1	0	40	21	
3	0	0	0	0	524	519	2	0	40	21	
4	0	0	0	0	524	520	4	0	40	21	
5	0	0	0	0	521	514	3	1018	40	21	
6	0	0	0	0	518	513	3	1018	40	21	
7	0	0	0	0	518	513	3	1018	40	21	
8	0	0	0	0	517	512	4	1019	40	21	
9	0	0	0	0	518	510	2	1018	40	21	
10	0	0	0	0	515	508	3	1018	40	21	
11	0	0	0	0	509	505	1	1018	40	21	
12	0	0	0	0	507	502	1	1019	40	21	
13	0	0	0	0	503	498	0	0	40	21	
14	0	0	0	0	500	497	0	0	40	21	
15	0	0	0	0	505	497	0	0	40	21	
0	0	0	0	0	511	504	3	0	40	21	
1	0	0	0	0	517	509	0	0	40	21	
2	0	0	0	0	521	511	3	0	40	21	
3	0	0	0	0	521	515	2	0	40	21	
4	0	0	0	0	526	516	4	0	40	21	
5	0	0	0	0	519	516	4	1018	40	21	
6	0	0	0	0	516	515	4	1018	40	21	
7	0	0	0	0	513	511	2	1018	40	21	
8	0	0	0	0	516	511	3	1018	40	21	
9	0	0	0	0	513	511	1	1018	40	21	
10	0	0	0	0	511	510	0	1018	40	21	
11	0	0	0	0	509	508	0	1018	40	21	
12	0	0	0	0	505	505	2	1017	40	21	
13	0	0	0	0	501	502	1	1018	40	21	
14	0	0	0	0	503	500	1	0	40	21	
15	0	0	0	0	500	499	1	0	40	21	
0	0	0	0	0	504	503	2	0	40	21	
1	0	0	0	0	512	507	1	0	40	21	
2	0	0	0	0	521	513	1	0	40	21	
3	0	0	0	0	524	516	1	0	40	21	
4	0	0	0	0	524	519	4	0	40	21	
5	0	0	0	0	518	520	2	0	40	21	
6	0	0	0	0	521	518	3	1018	40	21	
7	0	0	0	0	518	516	3	1018	40	21	
8	0	0	0	0	517	513	3	1018	40	21	
9	0	0	0	0	517	513	3	1018	40	21	
10	0	0	0	0	517	513	3	1018	40	21	
11	0	0	0	0	510	512	2	1018	40	21	
12	0	0	0	0	508	506	2	1019	40	21	
13	0	0	0	0	504	504	0	1018	40	21	
14	0	0	0	0	500	500	0	1018	40	21	
15	0	0	0	0	499	500	0	0	40	21	
0	0	0	0	0	502	500	1	0	40	21	
1	0	0	0	0	509	504	0	0	40	21	
2	0	0	0	0	512	510	0	0	40	21	
3	0	0	0	0	519	515	0	0	40	21	
4	0	0	0	0	521	518	2	0	40	21	
5	0	0	0	0	522	516	1	0	40	21	
6	0	0	0	0	523	515	1	0	40	21	
7	0	0	0	0	518	513	1	1018	40	21	
8	0	0	0	0	514	510	3	1018	40	21	
9	0	0	0	0	516	511	1	1018	40	21	
10	0	0	0	0	512	513	1	1018	40	21	
11	0	0	0	0	511	513	0	1018	40	21	
12	0	0	0	0	510	510	3	1019	40	21	
13	0	0	0	0	504	505	2	1018	40	21	
14	0	0	0	0	499	503	1	1018	40	21	
15	0	0	0	0	495	499	1	0	40	21	
0	0	0	0	0	497	498	0	0	40	21	
1	0	0	0	0	506	499	1	0	40	21	
2	0	0	0	0	512	505	1	0	40	21	
3	0	0	0	0	515	508	2	0	40	21	
4	0	0	0	0	523	514	2	0	40	21	
5	0	0	0	0	522	517	2	0	40	21	
6	0	0	0	0	526	518	3	0	40	21	
7	0	0	0	0	520	518	3	0	40	21	
8	0	0	0	0	520	518	4	1018	40	21	
9	0	0	0	0	519	513	3	1019	40	21	
10	0	0	0	0	517	514	2	1018	40	21	
11	0	0	0	0	520	515	3	1018	40	21	
12	0	0	0	0	512	512	3	1019	40	21	
13	0	0	0	0	512	511	2	1018	40	21	
14	0	0	0	0	504	508	1	1019	40	21	
15	0	0	0	0	501	505	1	1018	40	21	
0	0	0	0	0	497	501	1	0	40	21	
1	0	0	0	0	496	500	1	0	40	21	
2	0	0	0	0	503	505	1	0	40	21	
3	0	0	0	0	509	510	1	0	40	21	
4	0	0	0	0	520	516	2	0	40	21	
5	0	0	0	0	524	518	3	0	40	21	
6	0	0	0	0	523	519	3	0	40	21	
7	0	0	0	0	521	520	3	0	40	21	
8	0	0	0	0	517	518	3	1017	40	21	
9	0	0	0	0	519	516	3	1018	40	21	
10	0	0	0	0	519	513	3	1018	40	21	
11	0	0	0	0	515	515	2	1018	40	21	
12	0	0	0	0	511	512	3	1019	40	21	
13	0	0	0	0	506	510	2	1018	40	21	
14	0	0	0	0	503	507	1	1018	40	21	
15	0	0	0	0	498	503	0	1018	40	21	
0	0	0	0	0	500	500	1	1019	40	21	
1	0	0	0	0	504	497	0	0	40	21	
2	0	0	0	0	503	497	0	0	40	21	
3	0	0	0	0	510	505	0	0	40	21	
4	0	0	0	0	516	512	2	0	40	21	
5	0	0	0	0	519	514	0	0	40	21	
6	0	0	0	0	526	517	1	0	40	21	
7	0	0	0	0	526	518	2	0	40	21	
8	0	0	0	0	527	517	4	0	40	21	
9	0	0	0	0	523	514	3	1018	40	21	
10	0	0	0	0	519	512	3	1018	40	21	
11	0	0	0	0	519	513	3	1018	40	21	
12	0	0	0	0	519	512	2	1018	40	21	
13	0	0	0	0	512	510	3	1018	40	21	
14	0	0	0	0	508	509	2	1018	40	21	
15	0	0	0	0	504	506	2	1018	40	21	
0	0	0	0	0	500	502	1	1018	40	21	
1	0	0	0	0	498	501	1	0	40	21	
2	0	0	0	0	495	499	1	0	40	21	
3	0	0	0	0	503	501	1	0	40	21	
4	0	0	0	0	513	507	3	0	40	21	
5	0	0	0	0	516	510	2	0	40	21	
6	0	0	0	0	520	515	3	0	40	21	
7	0	0	0	0	526	519	3	0	40	21	
8	0	0	0	0	526	518	4	0	40	21	
9	0	0	0	0	520	518	4	1018	40	21	
10	0	0	0	0	521	516	3	1018	40	21	
11	0	0	0	0	517	514	2	1018	40	21	
12	0	0	0	0	516	512	2	1019	40	21	
13	0	0	0	0	512	513	1	1018	40	21	
14	0	0	0	0	517	511	0	1018	40	21	
15	0	0	0	0	513	506	0	1018	40	21	
0	0	0	0	0	506	503	1	1019	40	21	
1	0	0	0	0	501	500	2	1018	40	21	
2	0	0	0	0	500	499	1	0	40	21	
3	0	0	0	0	499	500	1	0	40	21	
4	0	0	0	0	505	504	3	0	40	21	
5	0	0	0	0	510	507	1	0	40	21	
6	0	0	0	0	518	513	2	0	40	21	
7	0	0	0	0	520	518	1	0	40	21	
8	0	0	0	0	523	519	4	0	40	21	
9	0	0	0	0	523	520	2	0	40	21	
10	0	0	0	0	518	519	1	1018	40	21	
11	0	0	0	0	516	514	1	1018	40	21	
12	0	0	0	0	515	514	4	1019	40	21	
13	0	0	0	0	515	512	3	1018	40	21	
14	0	0	0	0	515	512	3	1018	40	21	
15	0	0	0	0	512	509	2	1018	40	21	
0	0	0	0	0	509	505	1	1018	40	21	
1	0	0	0	0	504	502	2	1018	40	21	
2	0	0	0	0	500	500	1	0	40	21	
3	0	0	0	0	497	497	0	0	40	21	
4	0	0	0	0	501	500	1	0	40	21	
5	0	0	0	0	507	506	0	0	40	21	
6	0	0	0	0	508	512	0	0	40	21	
7	0	0	0	0	519	518	1	0	40	21	
8	0	0	0	0	517	519	3	0	40	21	
9	0	0	0	0	514	520	3	0	40	21	
10	0	0	0	0	514	520	3	0	40	21	
11	0	0	0	0	511	518	4	1018	40	21	
12	0	0	0	0	510	514	3	1019	40	21	
13	0	0	0	0	511	512	3	1018	40	21	
14	0	0	0	0	510	511	2	1019	40	21	
15	0	0	0	0	514	511	1	1018	40	21	
0	0	0	0	0	508	507	3	1019	40	21	
1	0	0	0	0	506	505	0	1018	40	21	
2	0	0	0	0	504	500	0	1018	40	21	
3	0	0	0	0	499	497	0	0	40	21	
4	0	0	0	0	501	497	2	0	40	21	
5	0	0	0	0	510	500	1	0	40	21	
6	0	0	0	0	514	506	2	0	40	21	
7	0	0	0	0	519	510	2	0	40	21	
8	0	0	0	0	525	513	3	0	40	21	
9	0	0	0	0	530	515	3	0	40	21	
10	0	0	0	0	530	516	3	0	40	21	
11	0	0	0	0	531	518	2	1018	40	21	
12	0	0	0	0	530	515	3	1019	40	21	
13	0	0	0	0	527	513	1	1018	40	21	
14	0	0	0	0	528	512	0	1018	40	21	
15	0	0	0	0	528	512	0	1018	40	21	
0	0	0	0	0	524	509	3	1019	40	21	
1	0	0	0	0	520	507	0	1018	40	21	
2	0	0	0	0	518	501	2	1018	40	21	
3	0	0	0	0	508	499	1	675	40	21	
4	0	0	0	0	511	496	1	0	40	21	
5	0	0	0	0	507	496	1	0	40	21	
6	0	0	0	0	511	501	1	0	40	21	
7	0	0	0	0	516	507	1	0	40	21	
8	0	0	0	0	521	514	1	0	40	21	
9	0	0	0	0	521	514	2	0	40	21	
10	0	0	0	0	519	516	1	0	40	21	
11	0	0	0	0	519	518	1	0	40	21	
12	0	0	0	0	516	518	4	1019	40	21	
13	0	0	0	0	512	515	2	1018	40	21	
14	0	0	0	0	509	514	3	1018	40	21	
15	0	0	0	0	506	514	3	1018	40	21	
0	0	0	0	0	504	512	3	1019	40	21	
1	0	0	0	0	500	509	3	1019	40	21	
2	0	0	0	0	500	507	1	1018	40	21	
3	0	0	0	0	497	504	1	1018	40	21	
4	0	0	0	0	492	499	0	1018	40	21	
5	0	0	0	0	494	498	1	0	40	21	
6	0	0	0	0	498	500	1	0	40	21	
7	0	0	0	0	506	506	1	0	40	21	
8	0	0	0	0	514	511	3	0	40	21	
9	0	0	0	0	515	516	3	0	40	21	
10	0	0	0	0	519	518	3	0	40	21	
11	0	0	0	0	518	518	3	0	40	21	
12	0	0	0	0	519	518	3	0	40	21	
13	0	0	0	0	516	515	4	1018	40	21	
14	0	0	0	0	511	514	3	1018	40	21	
15	0	0	0	0	512	513	2	1018	40	21	
0	0	0	0	0	513	514	3	1019	40	21	
1	0	0	0	0	512	510	3	1018	40	21	
2	0	0	0	0	506	507	1	1018	40	21	
3	0	0	0	0	504	505	1	1018	40	21	
4	0	0	0	0	502	502	1	1019	40	21	
5	0	0	0	0	499	500	0	0	40	21	
6	0	0	0	0	497	501	0	0	40	21	
7	0	0	0	0	505	503	0	0	40	21	
8	0	0	0	0	517	508	2	0	40	21	
9	0	0	0	0	521	515	0	0	40	21	
10	0	0	0	0	522	519	1	0	40	21	
11	0	0	0	0	520	520	2	0	40	21	
12	0	0	0	0	526	521	3	0	40	21	
13	0	0	0	0	520	519	3	1018	40	21	
14	0	0	0	0	518	516	3	1018	40	21	
15	0	0	0	0	518	515	3	1018	40	21	
0	0	0	0	0	519	514	4	1019	40	21	
1	0	0	0	0	516	511	3	1018	40	21	
2	0	0	0	0	512	509	3	1018	40	21	
3	0	0	0	0	508	508	1	1018	40	21	
4	0	0	0	0	505	504	2	1018	40	21	
5	0	0	0	0	499	501	0	1018	40	21	
6	0	0	0	0	502	502	0	0	40	21	
7	0	0	0	0	500	503	0	0	40	21	
8	0	0	0	0	510	504	0	0	40	21	
9	0	0	0	0	514	510	2	0	40	21	
10	0	0	0	0	519	514	2	0	40	21	
11	0	0	0	0	524	517	3	0	40	21	
12	0	0	0	0	522	519	3	0	40	21	
13	0	0	0	0	523	519	4	0	40	21	
14	0	0	0	0	520	518	3	1018	40	21	
15	0	0	0	0	515	514	2	1018	40	21	
0	0	0	0	0	512	511	3	1018	40	21	
1	0	0	0	0	516	512	1	1018	40	21	
2	0	0	0	0	516	511	1	1018	40	21	
3	0	0	0	0	512	509	2	1018	40	21	
4	0	0	0	0	508	508	3	1019	40	21	
5	0	0	0	0	505	504	1	1018	40	21	
6	0	0	0	0	504	503	1	384	40	21	
7	0	0	0	0	504	499	1	0	40	21	
8	0	0	0	0	504	499	0	0	40	21	
9	0	0	0	0	511	503	2	0	40	21	
10	0	0	0	0	517	507	1	0	40	21	
11	0	0	0	0	520	511	1	0	40	21	
12	0	0	0	0	521	516	3	0	40	21	
13	0	0	0	0	522	517	1	0	40	21	
14	0	0	0	0	521	516	2	0	40	21	
15	0	0	0	0	521	516	2	1018	40	21	
0	0	0	0	0	515	512	4	1019	40	21	
1	0	0	0	0	516	511	3	1018	40	21	
2	0	0	0	0	515	512	3	1018	40	21	
3	0	0	0	0	513	510	2	1018	40	21	
4	0	0	0	0	510	508	3	1019	40	21	
5	0	0	0	0	505	502	2	1018	40	21	
6	0	0	0	0	503	499	0	1018	40	21	
7	0	0	0	0	500	497	0	0	40	21	
8	0	0	0	0	498	496	1	0	40	21	
9	0	0	0	0	504	499	0	0	40	21	
10	0	0	0	0	510	506	0	0	40	21	
11	0	0	0	0	519	512	0	0	40	21	
12	0	0	0	0	522	517	3	0	40	21	
13	0	0	0	0	527	519	1	0	40	21	
14	0	0	0	0	525	518	3	0	40	21	
15	0	0	0	0	521	518	3	1018	40	21	
0	0	0	0	0	522	517	4	1019	40	21	
1	0	0	0	0	514	512	3	1019	40	21	
2	0	0	0	0	513	512	3	1018	40	21	
3	0	0	0	0	513	513	2	1018	40	21	
4	0	0	0	0	510	512	2	1019	40	21	
5	0	0	0	0	510	508	1	1018	40	21	
6	0	0	0	0	504	504	0	1018	40	21	
7	0	0	0	0	503	503	0	1017	40	21	
8	0	0	0	0	501	501	2	0	40	21	
9	0	0	0	0	499	499	0	0	40	21	
10	0	0	0	0	510	505	1	0	40	21	
11	0	0	0	0	516	510	1	0	40	21	
12	0	0	0	0	519	515	3	0	40	21	
13	0	0	0	0	522	516	3	0	40	21	
14	0	0	0	0	522	519	3	0	40	21	
15	0	0	0	0	522	519	2	0	40	21	
0	0	0	0	0	518	516	4	1017	40	21	
1	0	0	0	0	519	514	1	1018	40	21	
2	0	0	0	0	514	513	1	1018	40	21	
3	0	0	0	0	512	514	1	1018	40	21	
4	0	0	0	0	514	515	3	1019	40	21	
5	0	0	0	0	508	512	3	1019	40	21	
6	0	0	0	0	506	508	1	1018	40	21	
7	0	0	0	0	503	504	1	1018	40	21	
8	0	0	0	0	504	501	2	0	40	21	
9	0	0	0	0	501	498	1	0	40	21	
10	0	0	0	0	504	498	1	0	40	21	
11	0	0	0	0	509	505	0	0	40	21	
12	0	0	0	0	516	511	1	0	40	21	
13	0	0	0	0	520	514	1	0	40	21	
14	0	0	0	0	523	515	1	0	40	21	
15	0	0	0	0	525	516	1	0	40	21	
0	0	0	0	0	521	516	3	0	40	21	
1	0	0	0	0	520	515	2	1018	40	21	
2	0	0	0	0	515	512	3	1018	40	21	
3	0	0	0	0	514	512	3	1018	40	21	
4	0	0	0	0	514	512	3	1019	40	21	
5	0	0	0	0	510	512	3	1018	40	21	
6	0	0	0	0	509	509	3	1018	40	21	
7	0	0	0	0	509	506	2	1018	40	21	
8	0	0	0	0	504	504	2	1018	40	21	
9	0	0	0	0	499	501	0	4	40	21	
10	0	0	0	0	499	499	0	0	40	21	
11	0	0	0	0	507	503	0	0	40	21	
12	0	0	0	0	513	505	1	0	40	21	
13	0	0	0	0	519	510	0	0	40	21	
14	0	0	0	0	518	513	3	0	40	21	
15	0	0	0	0	519	517	2	0	40	21	
0	0	0	0	0	523	518	5	0	40	21	
1	0	0	0	0	517	516	4	1018	40	21	
2	0	0	0	0	518	514	3	1018	40	21	
3	0	0	0	0	516	511	3	1018	40	21	
4	0	0	0	0	514	509	3	1018	40	21	
5	0	0	0	0	515	510	3	1018	40	21	
6	0	0	0	0	513	506	1	1018	40	21	
7	0	0	0	0	508	504	0	1018	40	21	
8	0	0	0	0	505	501	1	1019	40	21	
9	0	0	0	0	503	496	0	1018	40	21	
10	0	0	0	0	503	495	0	0	40	21	
11	0	0	0	0	505	495	0	0	40	21	
12	0	0	0	0	512	499	0	0	40	21	
13	0	0	0	0	514	505	2	0	40	21	
14	0	0	0	0	523	514	2	0	40	21	
15	0	0	0	0	524	518	3	0	40	21	
0	0	0	0	0	522	518	4	0	40	21	
1	0	0	0	0	521	517	4	0	40	21	
2	0	0	0	0	518	515	3	1018	40	21	
3	0	0	0	0	514	513	1	1018	40	21	
4	0	0	0	0	514	514	3	1019	40	21	
5	0	0	0	0	512	512	1	1018	40	21	
6	0	0	0	0	510	511	0	1018	40	21	
7	0	0	0	0	510	509	0	1018	40	21	
8	0	0	0	0	506	508	2	1019	40	21	
9	0	0	0	0	502	503	0	1018	40	21	
10	0	0	0	0	501	501	0	1017	40	21	
11	0	0	0	0	499	498	1	0	40	21	
12	0	0	0	0	504	499	1	0	40	21	
13	0	0	0	0	508	504	1	0	40	21	
14	0	0	0	0	517	510	2	0	40	21	
15	0	0	0	0	519	516	2	0	40	21	
0	0	0	0	0	523	518	3	0	40	21	
1	0	0	0	0	520	518	3	0	40	21	
2	0	0	0	0	523	518	2	199	40	21	
3	0	0	0	0	519	516	2	1018	40	21	
4	0	0	0	0	516	512	4	1018	40	21	
5	0	0	0	0	515	511	1	1018	40	21	
6	0	0	0	0	515	511	1	1019	40	21	
7	0	0	0	0	512	511	0	1018	40	21	
8	0	0	0	0	509	508	1	1019	40	21	
9	0	0	0	0	504	505	2	1018	40	21	
10	0	0	0	0	501	501	1	1018	40	21	
11	0	0	0	0	499	499	1	0	40	21	
12	0	0	0	0	500	499	1	0	40	21	
13	0	0	0	0	507	499	1	0	40	21	
14	0	0	0	0	512	507	2	0	40	21	
15	0	0	0	0	519	512	2	0	40	21	
0	0	0	0	0	522	516	3	0	40	21	
1	0	0	0	0	524	519	3	0	40	21	
2	0	0	0	0	523	520	2	0	40	21	
3	0	0	0	0	522	519	2	1018	40	21	
4	0	0	0	0	519	517	4	1018	40	21	
5	0	0	0	0	514	515	2	1018	40	21	
6	0	0	0	0	515	514	1	1018	40	21	
7	0	0	0	0	513	514	0	1018	40	21	
8	0	0	0	0	509	511	4	1019	40	21	
9	0	0	0	0	506	507	0	1018	40	21	
10	0	0	0	0	500	504	2	1018	40	21	
11	0	0	0	0	500	502	1	1018	40	21	
12	0	0	0	0	499	498	1	0	40	21	
13	0	0	0	0	502	497	1	0	40	21	
14	0	0	0	0	509	502	1	0	40	21	
15	0	0	0	0	515	505	0	0	40	21	
0	0	0	0	0	520	509	3	0	40	21	
1	0	0	0	0	523	514	1	0	40	21	
2	0	0	0	0	521	516	1	0	40	21	
3	0	0	0	0	523	519	1	0	40	21	
4	0	0	0	0	519	515	3	1018	40	21	
5	0	0	0	0	518	512	3	1018	40	21	
6	0	0	0	0	516	511	3	1018	40	21	
7	0	0	0	0	515	513	3	1018	40	21	
8	0	0	0	0	513	512	1	1019	40	21	
9	0	0	0	0	507	510	2	1018	40	21	
10	0	0	0	0	505	510	1	1018	40	21	
11	0	0	0	0	500	506	0	1018	40	21	
12	0	0	0	0	498	504	1	111	40	21	
13	0	0	0	0	496	500	0	0	40	21	
14	0	0	0	0	501	501	0	0	40	21	
15	0	0	0	0	512	508	0	0	40	21	
0	0	0	0	0	519	513	3	0	40	21	
1	0	0	0	0	524	515	1	0	40	21	
2	0	0	0	0	526	517	3	0	40	21	
3	0	0	0	0	526	521	3	0	40	21	
4	0	0	0	0	523	521	4	1019	40	21	
5	0	0	0	0	523	518	4	1018	40	21	
6	0	0	0	0	518	515	3	1018	40	21	
7	0	0	0	0	524	515	2	1018	40	21	
8	0	0	0	0	518	515	2	1019	40	21	
9	0	0	0	0	511	513	1	1018	40	21	
10	0	0	0	0	508	511	0	1018	40	21	
11	0	0	0	0	504	508	0	1018	40	21	
12	0	0	0	0	500	502	1	1019	40	21	
13	0	0	0	0	498	499	0	0	40	21	
14	0	0	0	0	501	499	1	0	40	21	
15	0	0	0	0	504	502	1	0	40	21	
0	0	0	0	0	513	507	1	0	40	21	
1	0	0	0	0	516	512	3	0	40	21	
2	0	0	0	0	518	516	3	0	40	21	
3	0	0	0	0	520	520	2	0	40	21	
4	0	0	0	0	523	520	4	0	40	21	
5	0	0	0	0	521	519	2	1018	40	21	
6	0	0	0	0	519	518	1	1018	40	21	
7	0	0	0	0	518	513	1	1018	40	21	
8	0	0	0	0	517	514	3	1019	40	21	
9	0	0	0	0	513	513	1	1018	40	21	
10	0	0	0	0	515	512	3	1018	40	21	
11	0	0	0	0	508	510	2	1018	40	21	
12	0	0	0	0	503	506	2	1018	40	21	
13	0	0	0	0	500	503	1	1018	40	21	
14	0	0	0	0	499	500	0	0	40	21	
15	0	0	0	0	503	497	0	0	40	21	
0	0	0	0	0	505	504	1	0	40	21	
1	0	0	0	0	517	510	0	0	40	21	
2	0	0	0	0	518	514	0	0	40	21	
3	0	0	0	0	520	518	1	0	40	21	
4	0	0	0	0	523	519	3	0	40	21	
5	0	0	0	0	524	519	1	0	40	21	
6	0	0	0	0	521	516	2	1019	40	21	
7	0	0	0	0	520	514	1	1018	40	21	
8	0	0	0	0	517	514	3	1019	40	21	
9	0	0	0	0	515	512	1	1018	40	21	
10	0	0	0	0	514	511	1	1018	40	21	
11	0	0	0	0	509	508	0	1018	40	21	
12	0	0	0	0	504	505	3	1019	40	21	
13	0	0	0	0	506	501	0	1018	40	21	
14	0	0	0	0	504	499	1	1018	40	21	
15	0	0	0	0	502	497	1	0	40	21	
0	0	0	0	0	504	496	1	0	40	21	
1	0	0	0	0	511	502	1	0	40	21	
2	0	0	0	0	517	505	2	0	40	21	
3	0	0	0	0	520	513	3	0	40	21	
4	0	0	0	0	522	516	3	0	40	21	
5	0	0	0	0	523	516	2	0	40	21	
6	0	0	0	0	520	515	2	1018	40	21	
7	0	0	0	0	519	513	2	1018	40	21	
8	0	0	0	0	514	510	4	1018	40	21	
9	0	0	0	0	515	511	1	1018	40	21	
10	0	0	0	0	515	510	1	1018	40	21	
11	0	0	0	0	511	508	2	1018	40	21	
12	0	0	0	0	506	508	3	1018	40	21	
13	0	0	0	0	503	507	2	1018	40	21	
14	0	0	0	0	501	501	1	1018	40	21	
15	0	0	0	0	499	499	1	0	40	21	
0	0	0	0	0	499	498	0	0	40	21	
1	0	0	0	0	505	502	1	0	40	21	
2	0	0	0	0	513	508	1	0	40	21	
3	0	0	0	0	519	513	1	0	40	21	
4	0	0	0	0	524	515	3	0	40	21	
5	0	0	0	0	524	517	1	0	40	21	
6	0	0	0	0	523	517	1	0	40	21	
7	0	0	0	0	521	518	2	1018	40	21	
8	0	0	0	0	521	515	4	1019	40	21	
9	0	0	0	0	513	511	2	1018	40	21	
10	0	0	0	0	515	512	3	1018	40	21	
11	0	0	0	0	517	512	2	1018	40	21	
12	0	0	0	0	508	510	3	1019	40	21	
13	0	0	0	0	505	505	2	1018	40	21	
14	0	0	0	0	505	503	2	1019	40	21	
15	0	0	0	0	499	501	1	1017	40	21	
0	0	0	0	0	496	499	1	0	40	21	
1	0	0	0	0	504	499	0	0	40	21	
2	0	0	0	0	508	505	0	0	40	21	
3	0	0	0	0	511	512	0	0	40	21	
4	0	0	0	0	524	517	3	0	40	21	
5	0	0	0	0	523	519	1	0	40	21	
6	0	0	0	0	519	520	3	0	40	21	
7	0	0	0	0	523	519	3	0	40	21	
8	0	0	0	0	518	516	4	1018	40	21	
9	0	0	0	0	515	514	3	1018	40	21	
10	0	0	0	0	515	512	3	1018	40	21	
11	0	0	0	0	515	513	3	1018	40	21	
12	0	0	0	0	512	511	3	1019	40	21	
13	0	0	0	0	510	508	2	1018	40	21	
14	0	0	0	0	502	506	0	1018	40	21	
15	0	0	0	0	500	503	0	1018	40	21	
0	0	0	0	0	504	500	1	0	40	21	
1	0	0	0	0	500	496	0	0	40	21	
2	0	0	0	0	502	499	0	0	40	21	
3	0	0	0	0	512	506	1	0	40	21	
4	0	0	0	0	520	511	3	0	40	21	
5	0	0	0	0	527	516	3	0	40	21	
6	0	0	0	0	528	519	3	0	40	21	
7	0	0	0	0	525	519	3	0	40	21	
8	0	0	0	0	523	518	3	1014	40	21	
9	0	0	0	0	517	517	4	1018	40	21	
10	0	0	0	0	511	517	2	1018	40	21	
11	0	0	0	0	511	516	1	1018	40	21	
12	0	0	0	0	513	515	3	1017	40	21	
13	0	0	0	0	508	512	0	1018	40	21	
14	0	0	0	0	504	510	0	1018	40	21	
15	0	0	0	0	500	507	0	1018	40	21	
0	0	0	0	0	504	503	2	1019	40	21	
1	0	0	0	0	503	499	0	0	40	21	
2	0	0	0	0	499	497	1	0	40	21	
3	0	0	0	0	509	501	1	0	40	21	
4	0	0	0	0	514	505	2	0	40	21	
5	0	0	0	0	523	511	2	0	40	21	
6	0	0	0	0	525	515	3	0	40	21	
7	0	0	0	0	527	518	2	0	40	21	
8	0	0	0	0	526	521	3	0	40	21	
9	0	0	0	0	521	519	3	1018	40	21	
10	0	0	0	0	519	516	2	1018	40	21	
11	0	0	0	0	513	514	1	1018	40	21	
12	0	0	0	0	509	513	3	1019	40	21	
13	0	0	0	0	510	512	1	1018	40	21	
14	0	0	0	0	507	510	3	1018	40	21	
15	0	0	0	0	503	506	2	1018	40	21	
0	0	0	0	0	504	503	2	1019	40	21	
1	0	0	0	0	500	501	1	446	40	21	
2	0	0	0	0	497	498	1	0	40	21	
3	0	0	0	0	504	499	1	0	40	21	
4	0	0	0	0	510	503	2	0	40	21	
5	0	0	0	0	515	505	2	0	40	21	
6	0	0	0	0	523	512	1	0	40	21	
7	0	0	0	0	525	514	1	0	40	21	
8	0	0	0	0	524	516	4	0	40	21	
9	0	0	0	0	523	516	2	0	40	21	
10	0	0	0	0	521	515	2	1018	40	21	
11	0	0	0	0	520	513	3	1018	40	21	
12	0	0	0	0	517	512	4	1019	40	21	
13	0	0	0	0	515	511	3	1018	40	21	
14	0	0	0	0	513	513	3	1018	40	21	
15	0	0	0	0	511	513	2	1018	40	21	
0	0	0	0	0	507	510	2	1018	40	21	
1	0	0	0	0	500	505	1	1018	40	21	
2	0	0	0	0	497	505	0	1018	40	21	
3	0	0	0	0	500	501	0	0	40	21	
4	0	0	0	0	505	502	1	0	40	21	
5	0	0	0	0	510	505	0	0	40	21	
6	0	0	0	0	514	511	2	0	40	21	
7	0	0	0	0	523	517	2	0	40	21	
8	0	0	0	0	526	519	3	0	40	21	
9	0	0	0	0	518	519	3	0	40	21	
10	0	0	0	0	518	519	4	1018	40	21	
11	0	0	0	0	516	515	4	1018	40	21	
12	0	0	0	0	515	514	3	1019	40	21	
13	0	0	0	0	514	513	2	1018	40	21	
14	0	0	0	0	513	514	1	1018	40	21	
15	0	0	0	0	512	514	0	1018	40	21	
0	0	0	0	0	507	510	1	1019	40	21	
1	0	0	0	0	500	506	0	1018	40	21	
2	0	0	0	0	502	502	1	1018	40	21	
3	0	0	0	0	498	497	1	0	40	21	
4	0	0	0	0	497	496	0	0	40	21	
5	0	0	0	0	507	497	1	0	40	21	
6	0	0	0	0	512	504	2	0	40	21	
7	0	0	0	0	518	510	2	0	40	21	
8	0	0	0	0	523	515	2	0	40	21	
9	0	0	0	0	526	517	3	0	40	21	
10	0	0	0	0	524	518	4	0	40	21	
11	0	0	0	0	521	517	3	1018	40	21	
12	0	0	0	0	519	515	3	1018	40	21	
13	0	0	0	0	517	513	1	1018	40	21	
14	0	0	0	0	516	513	1	1018	40	21	
15	0	0	0	0	516	512	1	1018	40	21	
0	0	0	0	0	512	511	3	1019	40	21	
1	0	0	0	0	504	505	2	1018	40	21	
2	0	0	0	0	504	503	2	1018	40	21	
3	0	0	0	0	505	501	1	1018	40	21	
4	0	0	0	0	501	497	0	0	40	21	
5	0	0	0	0	500	499	1	0	40	21	
6	0	0	0	0	510	504	0	0	40	21	
7	0	0	0	0	511	511	0	0	40	21	
8	0	0	0	0	517	517	2	0	40	21	
9	0	0	0	0	519	518	1	0	40	21	
10	0	0	0	0	520	520	1	0	40	21	
11	0	0	0	0	520	518	1	0	40	21	
12	0	0	0	0	520	515	4	1019	40	21	
13	0	0	0	0	519	512	2	1018	40	21	
14	0	0	0	0	516	513	3	1018	40	21	
15	0	0	0	0	514	513	3	1018	40	21	
0	0	0	0	0	516	512	4	1019	40	21	
1	0	0	0	0	513	509	2	1018	40	21	
2	0	0	0	0	511	505	2	1018	40	21	
3	0	0	0	0	504	503	0	1018	40	21	
4	0	0	0	0	504	502	1	0	40	21	
5	0	0	0	0	502	501	0	0	40	21	
6	0	0	0	0	505	504	0	0	40	21	
7	0	0	0	0	511	510	0	0	40	21	
8	0	0	0	0	514	513	3	0	40	21	
9	0	0	0	0	520	517	3	0	40	21	
10	0	0	0	0	523	521	3	0	40	21	
11	0	0	0	0	521	522	3	0	40	21	
12	0	0	0	0	521	519	5	967	40	21	
13	0	0	0	0	518	516	4	1018	40	21	
14	0	0	0	0	512	514	3	1018	40	21	
15	0	0	0	0	515	515	2	1018	40	21	
0	0	0	0	0	513	514	2	1019	40	21	
1	0	0	0	0	509	511	1	1018	40	21	
2	0	0	0	0	510	508	0	1018	40	21	
3	0	0	0	0	505	505	0	1018	40	21	
4	0	0	0	0	501	502	2	0	40	21	
5	0	0	0	0	497	500	0	0	40	21	
6	0	0	0	0	496	498	1	0	40	21	
7	0	0	0	0	508	502	1	0	40	21	
8	0	0	0	0	513	508	1	0	40	21	
9	0	0	0	0	519	511	2	0	40	21	
10	0	0	0	0	520	514	3	0	40	21	
11	0	0	0	0	523	519	3	0	40	21	
12	0	0	0	0	523	518	4	0	40	21	
13	0	0	0	0	519	516	4	1018	40	21	
14	0	0	0	0	519	513	3	1018	40	21	
15	0	0	0	0	515	514	2	1018	40	21	
0	0	0	0	0	518	514	2	1019	40	21	
1	0	0	0	0	513	513	2	1018	40	21	
2	0	0	0	0	511	511	0	1018	40	21	
3	0	0	0	0	506	511	0	1018	40	21	
4	0	0	0	0	505	507	1	1018	40	21	
5	0	0	0	0	501	501	0	0	40	21	
6	0	0	0	0	500	499	0	0	40	21	
7	0	0	0	0	502	500	0	0	40	21	
8	0	0	0	0	508	507	1	0	40	21	
9	0	0	0	0	513	511	0	0	40	21	
10	0	0	0	0	519	516	1	0	40	21	
11	0	0	0	0	521	518	3	0	40	21	
12	0	0	0	0	525	518	2	0	40	21	
13	0	0	0	0	523	516	3	695	40	21	
14	0	0	0	0	515	516	4	1019	40	21	
15	0	0	0	0	514	515	3	1018	40	21	
0	0	0	0	0	518	515	3	1018	40	21	
1	0	0	0	0	516	515	3	1018	40	21	
2	0	0	0	0	515	514	3	1018	40	21	
3	0	0	0	0	511	508	2	1018	40	21	
4	0	0	0	0	505	506	2	1017	40	21	
5	0	0	0	0	500	503	1	1018	40	21	
6	0	0	0	0	495	500	1	1018	40	21	
7	0	0	0	0	498	500	1	0	40	21	
8	0	0	0	0	502	505	1	0	40	21	
9	0	0	0	0	512	509	1	0	40	21	
10	0	0	0	0	518	512	1	0	40	21	
11	0	0	0	0	522	518	1	0	40	21	
12	0	0	0	0	527	522	3	0	40	21	
13	0	0	0	0	523	520	2	0	40	21	
14	0	0	0	0	522	519	1	1018	40	21	
15	0	0	0	0	519	518	2	1018	40	21	
0	0	0	0	0	515	514	2	1018	40	21	
1	0	0	0	0	519	513	3	1018	40	21	
2	0	0	0	0	515	514	3	1018	40	21	
3	0	0	0	0	507	511	2	1018	40	21	
4	0	0	0	0	504	510	3	1019	40	21	
5	0	0	0	0	507	506	1	1018	40	21	
6	0	0	0	0	505	504	1	1018	40	21	
7	0	0	0	0	500	502	0	0	40	21	
8	0	0	0	0	500	500	1	0	40	21	
9	0	0	0	0	505	502	0	0	40	21	
10	0	0	0	0	511	508	0	0	40	21	
11	0	0	0	0	519	514	0	0	40	21	
12	0	0	0	0	524	518	3	0	40	21	
13	0	0	0	0	521	517	2	0	40	21	
14	0	0	0	0	519	519	3	0	40	21	
15	0	0	0	0	515	519	3	1018	40	21	
0	0	0	0	0	514	517	3	1019	40	21	
1	0	0	0	0	514	515	3	1018	40	21	
2	0	0	0	0	516	515	3	1018	40	21	
3	0	0	0	0	515	514	2	1018	40	21	
4	0	0	0	0	510	512	2	1019	40	21	
5	0	0	0	0	506	507	1	1018	40	21	
6	0	0	0	0	504	504	0	1018	40	21	
7	0	0	0	0	500	503	0	1018	40	21	
8	0	0	0	0	499	500	2	0	40	21	
9	0	0	0	0	501	497	1	0	40	21	
10	0	0	0	0	512	504	1	0	40	21	
11	0	0	0	0	513	509	1	0	40	21	
12	0	0	0	0	521	515	4	0	40	21	
13	0	0	0	0	524	516	3	0	40	21	
14	0	0	0	0	526	518	3	0	40	21	
15	0	0	0	0	524	517	2	0	40	21	
0	0	0	0	0	523	515	3	1019	40	21	
1	0	0	0	0	515	510	2	1018	40	21	
2	0	0	0	0	513	509	1	1018	40	21	
3	0	0	0	0	513	510	0	1018	40	21	
4	0	0	0	0	513	509	4	1019	40	21	
5	0	0	0	0	508	507	1	1018	40	21	
6	0	0	0	0	505	506	1	1018	40	21	
7	0	0	0	0	506	503	1	1018	40	21	
8	0	0	0	0	500	499	1	0	40	21	
9	0	0	0	0	502	497	1	0	40	21	
10	0	0	0	0	505	500	1	0	40	21	
11	0	0	0	0	512	507	0	0	40	21	
12	0	0	0	0	518	510	2	0	40	21	
13	0	0	0	0	520	515	1	0	40	21	
14	0	0	0	0	521	518	1	0	40	21	
15	0	0	0	0	520	519	1	0	40	21	
0	0	0	0	0	519	519	4	833	40	21	
1	0	0	0	0	512	514	2	1018	40	21	
2	0	0	0	0	513	514	3	1018	40	21	
3	0	0	0	0	518	516	2	1018	40	21	
4	0	0	0	0	512	516	2	1017	40	21	
5	0	0	0	0	509	513	2	1018	40	21	
6	0	0	0	0	508	510	2	1018	40	21	
7	0	0	0	0	503	507	1	1018	40	21	
8	0	0	0	0	503	502	0	401	40	21	
9	0	0	0	0	500	500	1	0	40	21	
10	0	0	0	0	499	499	0	0	40	21	
11	0	0	0	0	508	505	0	0	40	21	
12	0	0	0	0	514	508	1	0	40	21	
13	0	0	0	0	520	511	1	0	40	21	
14	0	0	0	0	523	515	1	0	40	21	
15	0	0	0	0	526	519	1	0	40	21	
0	0	0	0	0	524	520	3	0	40	21	
1	0	0	0	0	522	519	4	1018	40	21	
2	0	0	0	0	523	516	3	1018	40	21	
3	0	0	0	0	513	516	3	1018	40	21	
4	0	0	0	0	514	515	3	1019	40	21	
5	0	0	0	0	511	513	3	1018	40	21	
6	0	0	0	0	507	509	3	1018	40	21	
7	0	0	0	0	505	504	1	1018	40	21	
8	0	0	0	0	502	501	1	1019	40	21	
9	0	0	0	0	501	497	0	0	40	21	
10	0	0	0	0	502	498	0	0	40	21	
11	0	0	0	0	504	499	0	0	40	21	
12	0	0	0	0	514	502	1	0	40	21	
13	0	0	0	0	518	507	0	0	40	21	
14	0	0	0	0	523	512	2	0	40	21	
15	0	0	0	0	524	516	3	0	40	21	
0	0	0	0	0	523	519	3	0	40	21	
1	0	0	0	0	523	518	3	1018	40	21	
2	0	0	0	0	517	516	4	1018	40	21	
3	0	0	0	0	514	515	3	1018	40	21	
4	0	0	0	0	515	513	4	1019	40	21	
5	0	0	0	0	514	515	3	1018	40	21	
6	0	0	0	0	513	513	1	1018	40	21	
7	0	0	0	0	508	510	0	1018	40	21	
8	0	0	0	0	505	507	1	1018	40	21	
9	0	0	0	0	499	501	0	1018	40	21	
10	0	0	0	0	497	499	0	1018	40	21	
11	0	0	0	0	500	498	0	0	40	21	
12	0	0	0	0	502	502	2	0	40	21	
13	0	0	0	0	513	508	1	0	40	21	
14	0	0	0	0	523	514	2	0	40	21	
15	0	0	0	0	522	518	2	0	40	21	
0	0	0	0	0	526	520	4	0	40	21	
1	0	0	0	0	521	519	3	0	40	21	
2	0	0	0	0	521	521	4	1018	40	21	
3	0	0	0	0	520	518	3	1018	40	21	
4	0	0	0	0	516	515	3	1019	40	21	
5	0	0	0	0	513	514	2	1018	40	21	
6	0	0	0	0	511	513	1	1019	40	21	
7	0	0	0	0	516	511	0	1018	40	21	
8	0	0	0	0	510	508	3	1018	40	21	
9	0	0	0	0	502	505	0	1018	40	21	
10	0	0	0	0	499	500	0	1018	40	21	
11	0	0	0	0	494	498	1	0	40	21	
12	0	0	0	0	504	499	2	0	40	21	
13	0	0	0	0	508	502	1	0	40	21	
14	0	0	0	0	513	509	2	0	40	21	
15	0	0	0	0	517	515	3	0	40	21	
0	0	0	0	0	527	518	3	0	40	21	
1	0	0	0	0	526	515	3	0	40	21	
2	0	0	0	0	527	515	2	0	40	21	
3	0	0	0	0	522	515	2	1018	40	21	
4	0	0	0	0	514	512	3	1018	40	21	
5	0	0	0	0	511	511	1	1019	40	21	
6	0	0	0	0	512	511	0	1018	40	21	
7	0	0	0	0	514	511	3	1018	40	21	
8	0	0	0	0	508	508	3	1019	40	21	
9	0	0	0	0	503	504	2	1018	40	21	
10	0	0	0	0	499	501	2	1018	40	21	
11	0	0	0	0	499	501	1	1017	40	21	
12	0	0	0	0	497	499	1	0	40	21	
13	0	0	0	0	505	500	1	0	40	21	
14	0	0	0	0	511	506	0	0	40	21	
15	0	0	0	0	518	511	0	0	40	21	
0	0	0	0	0	522	517	3	0	40	21	
1	0	0	0	0	523	518	1	0	40	21	
2	0	0	0	0	526	519	2	0	40	21	
3	0	0	0	0	520	519	3	0	40	21	
4	0	0	0	0	518	516	3	1018	40	21	
5	0	0	0	0	513	513	3	1018	40	21	
6	0	0	0	0	513	514	3	1018	40	21	
7	0	0	0	0	515	515	3	1018	40	21	
8	0	0	0	0	515	513	2	1019	40	21	
9	0	0	0	0	508	510	1	1019	40	21	
10	0	0	0	0	504	507	0	1018	40	21	
11	0	0	0	0	503	502	0	1018	40	21	
12	0	0	0	0	502	501	0	0	40	21	
13	0	0	0	0	500	500	1	0	40	21	
14	0	0	0	0	506	501	1	0	40	21	
15	0	0	0	0	517	506	1	0	40	21	
0	0	0	0	0	516	512	2	0	40	21	
1	0	0	0	0	522	513	3	0	40	21	
2	0	0	0	0	526	518	2	0	40	21	
3	0	0	0	0	523	518	1	0	40	21	
4	0	0	0	0	521	519	3	1017	40	21	
5	0	0	0	0	516	516	1	1018	40	21	
6	0	0	0	0	515	516	2	1018	40	21	
7	0	0	0	0	516	516	3	1018	40	21	
8	0	0	0	0	512	512	3	1017	40	21	
9	0	0	0	0	512	513	2	1018	40	21	
10	0	0	0	0	511	508	2	1018	40	21	
11	0	0	0	0	502	506	2	1018	40	21	
12	0	0	0	0	500	502	1	1018	40	21	
13	0	0	0	0	498	497	1	0	40	21	
14	0	0	0	0	503	498	0	0	40	21	
15	0	0	0	0	508	504	0	0	40	21	
0	0	0	0	0	515	509	2	0	40	21	
1	0	0	0	0	519	514	1	0	40	21	
2	0	0	0	0	524	517	1	0	40	21	
3	0	0	0	0	521	518	1	0	40	21	
4	0	0	0	0	520	518	4	0	40	21	
5	0	0	0	0	517	512	4	1018	40	21	
6	0	0	0	0	517	509	3	1018	40	21	
7	0	0	0	0	512	508	3	1018	40	21	
8	0	0	0	0	513	511	3	1019	40	21	
9	0	0	0	0	506	508	3	1018	40	21	
10	0	0	0	0	504	508	2	1018	40	21	
11	0	0	0	0	505	506	0	1018	40	21	
12	0	0	0	0	498	504	1	1019	40	21	
13	0	0	0	0	498	502	0	0	40	21	
14	0	0	0	0	504	499	0	0	40	21	
15	0	0	0	0	508	500	0	0	40	21	
0	0	0	0	0	513	507	3	0	40	21	
1	0	0	0	0	517	509	2	0	40	21	
2	0	0	0	0	524	515	2	0	40	21	
3	0	0	0	0	527	519	3	0	40	21	
4	0	0	0	0	527	520	4	0	40	21	
5	0	0	0	0	524	517	4	0	40	21	
6	0	0	0	0	523	516	3	1018	40	21	
7	0	0	0	0	522	513	2	1018	40	21	
8	0	0	0	0	523	513	2	1019	40	21	
9	0	0	0	0	516	514	1	1018	40	21	
10	0	0	0	0	509	512	1	1018	40	21	
11	0	0	0	0	505	510	2	1018	40	21	
12	0	0	0	0	501	505	1	1018	40	21	
13	0	0	0	0	499	501	1	1018	40	21	
14	0	0	0	0	500	499	1	0	40	21	
15	0	0	0	0	499	498	1	0	40	21	
0	0	0	0	0	503	500	1	0	40	21	
1	0	0	0	0	513	506	1	0	40	21	
2	0	0	0	0	518	513	0	0	40	21	
3	0	0	0	0	522	520	0	0	40	21	
4	0	0	0	0	522	524	4	0	40	21	
5	0	0	0	0	520	524	2	0	40	21	
6	0	0	0	0	519	521	4	1018	40	21	
7	0	0	0	0	517	517	3	1018	40	21	
8	0	0	0	0	516	515	4	1019	40	21	
9	0	0	0	0	512	515	3	1018	40	21	
10	0	0	0	0	513	515	2	1018	40	21	
11	0	0	0	0	509	513	0	1018	40	21	
12	0	0	0	0	508	509	2	1019	40	21	
13	0	0	0	0	507	505	0	1018	40	21	
14	0	0	0	0	502	501	0	1018	40	21	
15	0	0	0	0	499	499	0	0	40	21	
0	0	0	0	0	501	498	2	0	40	21	
1	0	0	0	0	507	504	2	0	40	21	
2	0	0	0	0	516	509	2	0	40	21	
3	0	0	0	0	524	514	3	0	40	21	
4	0	0	0	0	523	514	3	0	40	21	
5	0	0	0	0	524	517	4	0	40	21	
6	0	0	0	0	520	519	2	0	40	21	
7	0	0	0	0	517	518	2	1018	40	21	
8	0	0	0	0	514	513	4	1018	40	21	
9	0	0	0	0	514	512	1	1018	40	21	
10	0	0	0	0	514	512	1	1018	40	21	
11	0	0	0	0	510	512	3	1018	40	21	
12	0	0	0	0	511	509	1	1018	40	21	
13	0	0	0	0	507	508	2	1018	40	21	
14	0	0	0	0	503	504	2	1018	40	21	
15	0	0	0	0	500	502	1	112	40	21	
0	0	0	0	0	496	498	2	0	40	21	
1	0	0	0	0	502	500	1	0	40	21	
2	0	0	0	0	509	505	1	0	40	21	
3	0	0	0	0	515	511	0	0	40	21	
4	0	0	0	0	524	516	3	0	40	21	
5	0	0	0	0	523	519	1	0	40	21	
6	0	0	0	0	525	518	1	0	40	21	
7	0	0	0	0	522	519	1	0	40	21	
8	0	0	0	0	519	518	4	1019	40	21	
9	0	0	0	0	519	512	2	1018	40	21	
10	0	0	0	0	517	513	3	1018	40	21	
11	0	0	0	0	512	512	3	1018	40	21	
12	0	0	0	0	510	508	3	1019	40	21	
13	0	0	0	0	511	505	3	1018	40	21	
14	0	0	0	0	509	503	1	1018	40	21	
15	0	0	0	0	498	499	1	1018	40	21	
0	0	0	0	0	501	497	2	0	40	21	
1	0	0	0	0	502	496	1	0	40	21	
2	0	0	0	0	501	502	1	0	40	21	
3	0	0	0	0	508	509	1	0	40	21	
4	0	0	0	0	515	512	2	0	40	21	
5	0	0	0	0	518	516	1	0	40	21	
6	0	0	0	0	518	518	1	0	40	21	
7	0	0	0	0	518	519	1	0	40	21	
8	0	0	0	0	516	520	4	1019	40	21	
9	0	0	0	0	511	518	3	1018	40	21	
10	0	0	0	0	506	517	3	1018	40	21	
11	0	0	0	0	515	516	3	1018	40	21	
12	0	0	0	0	509	513	3	1018	40	21	
13	0	0	0	0	507	510	2	1018	40	21	
14	0	0	0	0	506	507	1	1018	40	21	
15	0	0	0	0	504	505	0	1018	40	21	
0	0	0	0	0	503	502	1	1019	40	21	
1	0	0	0	0	500	496	0	0	40	21	
2	0	0	0	0	503	498	0	0	40	21	
3	0	0	0	0	512	503	1	0	40	21	
4	0	0	0	0	516	508	3	0	40	21	
5	0	0	0	0	522	510	3	0	40	21	
6	0	0	0	0	527	512	3	0	40	21	
7	0	0	0	0	530	517	3	0	40	21	
8	0	0	0	0	529	518	3	0	40	21	
9	0	0	0	0	527	516	4	1018	40	21	
10	0	0	0	0	535	515	2	1018	40	21	
11	0	0	0	0	536	513	1	1018	40	21	
12	0	0	0	0	530	515	3	1019	40	21	
13	0	0	0	0	527	513	0	1018	40	21	
14	0	0	0	0	519	511	0	1018	40	21	
15	0	0	0	0	516	509	2	1018	40	21	
0	0	0	0	0	510	505	3	1019	40	21	
1	0	0	0	0	506	501	1	1017	40	21	
2	0	0	0	0	507	496	1	0	40	21	
3	0	0	0	0	506	499	1	0	40	21	
4	0	0	0	0	510	504	1	0	40	21	
5	0	0	0	0	512	508	1	0	40	21	
6	0	0	0	0	519	515	1	0	40	21	
7	0	0	0	0	519	516	1	0	40	21	
8	0	0	0	0	517	517	5	0	40	21	
9	0	0	0	0	515	515	1	0	40	21	
10	0	0	0	0	514	513	2	1018	40	21	
11	0	0	0	0	513	512	2	1018	40	21	
12	0	0	0	0	511	513	4	1019	40	21	
13	0	0	0	0	504	512	3	1018	40	21	
14	0	0	0	0	504	511	3	1018	40	21	
15	0	0	0	0	500	506	2	1018	40	21	
0	0	0	0	0	500	502	2	1018	40	21	
1	0	0	0	0	496	501	1	1018	40	21	
2	0	0	0	0	495	500	0	0	40	21	
3	0	0	0	0	500	499	0	0	40	21	
4	0	0	0	0	505	504	1	0	40	21	
5	0	0	0	0	508	507	0	0	40	21	
6	0	0	0	0	513	510	0	0	40	21	
7	0	0	0	0	516	513	3	0	40	21	
8	0	0	0	0	518	515	2	0	40	21	
9	0	0	0	0	518	517	3	0	40	21	
10	0	0	0	0	516	518	4	1018	40	21	
11	0	0	0	0	514	516	4	1018	40	21	
12	0	0	0	0	514	515	3	1019	40	21	
13	0	0	0	0	512	514	3	1018	40	21	
14	0	0	0	0	513	513	1	1018	40	21	
15	0	0	0	0	510	512	0	1018	40	21	
0	0	0	0	0	506	509	1	1019	40	21	
1	0	0	0	0	500	504	0	1018	40	21	
2	0	0	0	0	502	501	2	474	40	21	
3	0	0	0	0	500	499	1	0	40	21	
4	0	0	0	0	502	498	1	0	40	21	
5	0	0	0	0	510	503	1	0	40	21	
6	0	0	0	0	517	510	2	0	40	21	
7	0	0	0	0	523	515	2	0	40	21	
8	0	0	0	0	524	519	4	0	40	21	
9	0	0	0	0	522	519	3	0	40	21	
10	0	0	0	0	521	519	4	0	40	21	
11	0	0	0	0	519	519	3	1018	40	21	
12	0	0	0	0	519	515	3	1019	40	21	
13	0	0	0	0	515	514	3	1018	40	21	
14	0	0	0	0	511	514	1	1018	40	21	
15	0	0	0	0	511	514	1	1018	40	21	
0	0	0	0	0	512	511	3	1018	40	21	
1	0	0	0	0	512	508	0	1018	40	21	
2	0	0	0	0	503	507	0	1018	40	21	
3	0	0	0	0	503	505	0	0	40	21	
4	0	0	0	0	500	504	2	0	40	21	
5	0	0	0	0	505	505	0	0	40	21	
6	0	0	0	0	513	510	0	0	40	21	
7	0	0	0	0	516	515	0	0	40	21	
8	0	0	0	0	527	519	1	0	40	21	
9	0	0	0	0	527	519	1	0	40	21	
10	0	0	0	0	525	519	1	0	40	21	
11	0	0	0	0	522	518	2	1018	40	21	
12	0	0	0	0	518	515	4	1019	40	21	
13	0	0	0	0	512	512	1	1018	40	21	
14	0	0	0	0	514	512	3	1018	40	21	
15	0	0	0	0	511	514	2	1018	40	21	
0	0	0	0	0	510	511	4	1019	40	21	
1	0	0	0	0	507	508	3	1019	40	21	
2	0	0	0	0	502	505	1	1018	40	21	
3	0	0	0	0	503	503	0	1018	40	21	
4	0	0	0	0	502	500	2	692	40	21	
5	0	0	0	0	504	500	0	0	40	21	
6	0	0	0	0	512	502	0	0	40	21	
7	0	0	0	0	518	509	0	0	40	21	
8	0	0	0	0	522	513	3	0	40	21	
9	0	0	0	0	523	515	3	0	40	21	
10	0	0	0	0	529	518	3	0	40	21	
11	0	0	0	0	527	518	3	0	40	21	
12	0	0	0	0	522	517	3	1019	40	21	
13	0	0	0	0	512	512	3	1018	40	21	
14	0	0	0	0	514	511	2	1018	40	21	
15	0	0	0	0	515	513	1	1018	40	21	
0	0	0	0	0	511	511	3	1017	40	21	
1	0	0	0	0	507	509	0	1018	40	21	
2	0	0	0	0	504	505	2	1018	40	21	
3	0	0	0	0	501	502	1	1018	40	21	
4	0	0	0	0	500	500	1	1019	40	21	
5	0	0	0	0	499	497	1	0	40	21	
6	0	0	0	0	501	499	1	0	40	21	
7	0	0	0	0	510	505	0	0	40	21	
8	0	0	0	0	516	509	2	0	40	21	
9	0	0	0	0	523	516	1	0	40	21	
10	0	0	0	0	523	517	2	0	40	21	
11	0	0	0	0	525	519	3	0	40	21	
12	0	0	0	0	520	518	3	0	40	21	
13	0	0	0	0	518	515	3	1018	40	21	
14	0	0	0	0	515	511	3	1018	40	21	
15	0	0	0	0	515	511	3	1018	40	21	
0	0	0	0	0	515	512	3	1019	40	21	
1	0	0	0	0	513	508	3	1018	40	21	
2	0	0	0	0	508	509	1	1018	40	21	
3	0	0	0	0	507	507	0	1018	40	21	
4	0	0	0	0	503	501	1	1019	40	21	
5	0	0	0	0	500	496	0	0	40	21	
6	0	0	0	0	499	495	0	0	40	21	
7	0	0	0	0	505	499	0	0	40	21	
8	0	0	0	0	513	505	2	0	40	21	
9	0	0	0	0	518	508	0	0	40	21	
10	0	0	0	0	522	513	0	0	40	21	
11	0	0	0	0	526	518	1	0	40	21	
12	0	0	0	0	523	517	4	0	40	21	
13	0	0	0	0	518	518	3	1018	40	21	
14	0	0	0	0	518	516	3	1018	40	21	
15	0	0	0	0	515	514	3	1018	40	21	
0	0	0	0	0	514	512	2	1019	40	21	
1	0	0	0	0	516	513	3	1018	40	21	
2	0	0	0	0	510	510	3	1018	40	21	
3	0	0	0	0	507	507	2	1018	40	21	
4	0	0	0	0	502	503	1	1019	40	21	
5	0	0	0	0	501	499	1	1018	40	21	
6	0	0	0	0	503	497	1	0	40	21	
7	0	0	0	0	500	497	1	0	40	21	
8	0	0	0	0	504	502	3	0	40	21	
9	0	0	0	0	509	507	2	0	40	21	
10	0	0	0	0	519	513	2	0	40	21	
11	0	0	0	0	518	517	1	0	40	21	
12	0	0	0	0	523	518	4	0	40	21	
13	0	0	0	0	526	519	4	0	40	21	
14	0	0	0	0	520	519	3	1018	40	21	
15	0	0	0	0	516	516	2	1018	40	21	
0	0	0	0	0	516	515	3	1019	40	21	
1	0	0	0	0	517	516	1	1018	40	21	
2	0	0	0	0	514	515	1	1018	40	21	
3	0	0	0	0	508	511	1	1018	40	21	
4	0	0	0	0	509	507	1	1018	40	21	
5	0	0	0	0	507	504	2	1018	40	21	
6	0	0	0	0	502	501	1	1018	40	21	
7	0	0	0	0	500	500	1	0	40	21	
8	0	0	0	0	502	499	2	0	40	21	
9	0	0	0	0	512	505	2	0	40	21	
10	0	0	0	0	519	512	2	0	40	21	
11	0	0	0	0	521	518	2	0	40	21	
12	0	0	0	0	523	518	3	0	40	21	
13	0	0	0	0	524	518	1	0	40	21	
14	0	0	0	0	524	518	1	0	40	21	
15	0	0	0	0	520	517	2	1018	40	21	
0	0	0	0	0	515	512	4	1019	40	21	
1	0	0	0	0	514	513	3	1018	40	21	
2	0	0	0	0	513	512	2	1018	40	21	
3	0	0	0	0	511	511	2	1018	40	21	
4	0	0	0	0	509	507	2	1019	40	21	
5	0	0	0	0	504	504	2	1018	40	21	
6	0	0	0	0	501	500	0	1018	40	21	
7	0	0	0	0	496	499	0	0	40	21	
8	0	0	0	0	499	498	2	0	40	21	
9	0	0	0	0	504	499	0	0	40	21	
10	0	0	0	0	510	505	0	0	40	21	
11	0	0	0	0	515	510	0	0	40	21	
12	0	0	0	0	521	515	1	0	40	21	
13	0	0	0	0	520	517	3	0	40	21	
14	0	0	0	0	528	520	3	0	40	21	
15	0	0	0	0	524	519	3	781	40	21	
0	0	0	0	0	518	519	5	1019	40	21	
1	0	0	0	0	519	515	3	1018	40	21	
2	0	0	0	0	512	515	2	1018	40	21	
3	0	0	0	0	514	515	1	1018	40	21	
4	0	0	0	0	510	512	3	1019	40	21	
5	0	0	0	0	507	508	0	1019	40	21	
6	0	0	0	0	504	505	0	1018	40	21	
7	0	0	0	0	501	503	0	1017	40	21	
8	0	0	0	0	498	500	2	0	40	21	
9	0	0	0	0	496	498	1	0	40	21	
10	0	0	0	0	506	503	1	0	40	21	
11	0	0	0	0	515	509	1	0	40	21	
12	0	0	0	0	520	512	2	0	40	21	
13	0	0	0	0	525	515	3	0	40	21	
14	0	0	0	0	523	517	2	0	40	21	
15	0	0	0	0	522	516	1	0	40	21	
0	0	0	0	0	521	519	3	1018	40	21	
1	0	0	0	0	519	517	2	1018	40	21	
2	0	0	0	0	519	517	3	1018	40	21	
3	0	0	0	0	519	515	3	1018	40	21	
4	0	0	0	0	512	513	3	1019	40	21	
5	0	0	0	0	510	510	2	1018	40	21	
6	0	0	0	0	507	507	2	1018	40	21	
7	0	0	0	0	505	505	1	1018	40	21	
8	0	0	0	0	498	501	1	1018	40	21	
9	0	0	0	0	494	497	0	0	40	21	
10	0	0	0	0	504	501	0	0	40	21	
11	0	0	0	0	509	507	0	0	40	21	
12	0	0	0	0	515	513	1	0	40	21	
13	0	0	0	0	520	516	3	0	40	21	
14	0	0	0	0	523	519	3	0	40	21	
15	0	0	0	0	521	520	2	0	40	21	
0	0	0	0	0	519	519	5	0	40	21	
1	0	0	0	0	517	517	4	1018	40	21	
2	0	0	0	0	514	515	3	1018	40	21	
3	0	0	0	0	517	513	2	1018	40	21	
4	0	0	0	0	518	512	2	1019	40	21	
5	0	0	0	0	512	510	1	1018	40	21	
6	0	0	0	0	508	508	0	1018	40	21	
7	0	0	0	0	503	507	0	1018	40	21	
8	0	0	0	0	501	504	1	1019	40	21	
9	0	0	0	0	500	500	0	701	40	21	
10	0	0	0	0	499	499	1	0	40	21	
11	0	0	0	0	507	501	1	0	40	21	
12	0	0	0	0	513	506	3	0	40	21	
13	0	0	0	0	514	508	2	0	40	21	
14	0	0	0	0	521	513	2	0	40	21	
15	0	0	0	0	524	517	2	0	40	21	
0	0	0	0	0	518	517	4	0	40	21	
1	0	0	0	0	521	518	3	1018	40	21	
2	0	0	0	0	515	515	2	1018	40	21	
3	0	0	0	0	515	515	0	1018	40	21	
4	0	0	0	0	516	515	3	1019	40	21	
5	0	0	0	0	514	514	0	1018	40	21	
6	0	0	0	0	514	512	1	1018	40	21	
7	0	0	0	0	506	509	0	1018	40	21	
8	0	0	0	0	503	504	0	1018	40	21	
9	0	0	0	0	499	502	0	1018	40	21	
10	0	0	0	0	503	501	1	0	40	21	
11	0	0	0	0	504	500	1	0	40	21	
12	0	0	0	0	506	503	2	0	40	21	
13	0	0	0	0	514	508	1	0	40	21	
14	0	0	0	0	521	515	3	0	40	21	
15	0	0	0	0	524	519	2	0	40	21	
0	0	0	0	0	523	519	3	0	40	21	
1	0	0	0	0	521	519	3	0	40	21	
2	0	0	0	0	517	516	4	1018	40	21	
3	0	0	0	0	517	514	4	1018	40	21	
4	0	0	0	0	515	512	4	1018	40	21	
5	0	0	0	0	516	513	3	1018	40	21	
6	0	0	0	0	513	512	3	1018	40	21	
7	0	0	0	0	510	510	2	1018	40	21	
8	0	0	0	0	508	505	2	1018	40	21	
9	0	0	0	0	502	502	1	1018	40	21	
10	0	0	0	0	503	500	0	1018	40	21	
11	0	0	0	0	501	499	0	0	40	21	
12	0	0	0	0	505	499	2	0	40	21	
13	0	0	0	0	513	504	0	0	40	21	
14	0	0	0	0	519	510	0	0	40	21	
15	0	0	0	0	524	516	1	0	40	21	
0	0	0	0	0	524	520	4	0	40	21	
1	0	0	0	0	521	521	3	0	40	21	
2	0	0	0	0	521	520	3	0	40	21	
3	0	0	0	0	519	519	4	1018	40	21	
4	0	0	0	0	519	513	3	1019	40	21	
5	0	0	0	0	512	512	3	1018	40	21	
6	0	0	0	0	510	512	1	1018	40	21	
7	0	0	0	0	514	512	1	1018	40	21	
8	0	0	0	0	510	510	2	1019	40	21	
9	0	0	0	0	505	505	0	1018	40	21	
10	0	0	0	0	501	504	0	1018	40	21	
11	0	0	0	0	498	502	0	0	40	21	
12	0	0	0	0	498	502	2	0	40	21	
13	0	0	0	0	506	503	0	0	40	21	
14	0	0	0	0	513	507	2	0	40	21	
15	0	0	0	0	515	513	2	0	40	21	
0	0	0	0	0	518	518	1	0	40	21	
1	0	0	0	0	522	521	3	0	40	21	
2	0	0	0	0	522	520	4	0	40	21	
3	0	0	0	0	525	519	4	1018	40	21	
4	0	0	0	0	521	515	3	1019	40	21	
5	0	0	0	0	516	511	2	1018	40	21	
6	0	0	0	0	515	513	1	1018	40	21	
7	0	0	0	0	514	513	0	1018	40	21	
8	0	0	0	0	511	511	2	1019	40	21	
9	0	0	0	0	504	507	0	1019	40	21	
10	0	0	0	0	503	504	1	1018	40	21	
11	0	0	0	0	499	502	1	1018	40	21	
12	0	0	0	0	496	499	2	0	40	21	
13	0	0	0	0	501	497	1	0	40	21	
14	0	0	0	0	511	500	2	0	40	21	
15	0	0	0	0	515	508	1	0	40	21	
0	0	0	0	0	523	514	3	0	40	21	
1	0	0	0	0	525	519	3	0	40	21	
2	0	0	0	0	525	519	3	0	40	21	
3	0	0	0	0	523	520	2	0	40	21	
4	0	0	0	0	525	519	3	1018	40	21	
5	0	0	0	0	521	515	2	1018	40	21	
6	0	0	0	0	517	512	2	1018	40	21	
7	0	0	0	0	516	514	1	1018	40	21	
8	0	0	0	0	512	511	3	1018	40	21	
9	0	0	0	0	508	508	0	1018	40	21	
10	0	0	0	0	509	506	0	1018	40	21	
11	0	0	0	0	502	504	0	1018	40	21	
12	0	0	0	0	500	501	1	0	40	21	
13	0	0	0	0	498	499	0	0	40	21	
14	0	0	0	0	502	500	0	0	40	21	
15	0	0	0	0	510	504	0	0	40	21	
0	0	0	0	0	515	511	3	0	40	21	
1	0	0	0	0	520	515	1	0	40	21	
2	0	0	0	0	521	516	3	0	40	21	
3	0	0	0	0	520	517	3	0	40	21	
4	0	0	0	0	519	516	3	1019	40	21	
5	0	0	0	0	519	512	3	1018	40	21	
6	0	0	0	0	514	510	3	1018	40	21	
7	0	0	0	0	516	510	2	1018	40	21	
8	0	0	0	0	515	510	3	1019	40	21	
9	0	0	0	0	512	506	2	1018	40	21	
10	0	0	0	0	508	507	3	1018	40	21	
11	0	0	0	0	503	506	2	1018	40	21	
12	0	0	0	0	500	502	0	1019	40	21	
13	0	0	0	0	499	499	0	1018	40	21	
14	0	0	0	0	497	498	0	0	40	21	
15	0	0	0	0	506	499	0	0	40	21	
0	0	0	0	0	513	506	2	0	40	21	
1	0	0	0	0	516	509	0	0	40	21	
2	0	0	0	0	522	514	2	0	40	21	
3	0	0	0	0	524	518	3	0	40	21	
4	0	0	0	0	523	518	4	0	40	21	
5	0	0	0	0	518	515	3	1018	40	21	
6	0	0	0	0	517	513	3	1018	40	21	
7	0	0	0	0	512	511	2	1018	40	21	
8	0	0	0	0	518	512	3	1018	40	21	
9	0	0	0	0	515	513	3	1018	40	21	
10	0	0	0	0	511	510	3	1018	40	21	
11	0	0	0	0	506	506	2	1018	40	21	
12	0	0	0	0	501	502	1	1018	40	21	
13	0	0	0	0	502	497	0	623	40	21	
14	0	0	0	0	504	497	0	0	40	21	
15	0	0	0	0	508	497	0	0	40	21	
0	0	0	0	0	510	502	2	0	40	21	
1	0	0	0	0	513	509	0	0	40	21	
2	0	0	0	0	516	515	0	0	40	21	
3	0	0	0	0	519	518	1	0	40	21	
4	0	0	0	0	521	519	2	0	40	21	
5	0	0	0	0	523	517	2	0	40	21	
6	0	0	0	0	519	517	3	1018	40	21	
7	0	0	0	0	518	514	3	1018	40	21	
8	0	0	0	0	513	513	4	1019	40	21	
9	0	0	0	0	517	511	3	1018	40	21	
10	0	0	0	0	510	510	3	1018	40	21	
11	0	0	0	0	505	507	1	1018	40	21	
12	0	0	0	0	507	504	2	1018	40	21	
13	0	0	0	0	503	501	1	1018	40	21	
14	0	0	0	0	498	500	0	0	40	21	
15	0	0	0	0	496	498	0	0	40	21	
0	0	0	0	0	504	502	1	0	40	21	
1	0	0	0	0	511	507	0	0	40	21	
2	0	0	0	0	517	513	0	0	40	21	
3	0	0	0	0	521	518	1	0	40	21	
4	0	0	0	0	525	519	2	0	40	21	
5	0	0	0	0	521	519	3	0	40	21	
6	0	0	0	0	519	517	3	0	40	21	
7	0	0	0	0	519	515	3	1018	40	21	
8	0	0	0	0	518	511	4	1019	40	21	
9	0	0	0	0	515	512	3	1018	40	21	
10	0	0	0	0	514	515	1	1018	40	21	
11	0	0	0	0	512	512	1	1018	40	21	
12	0	0	0	0	510	507	3	1019	40	21	
13	0	0	0	0	506	503	0	1018	40	21	
14	0	0	0	0	500	502	0	1018	40	21	
15	0	0	0	0	496	499	1	0	40	21	
0	0	0	0	0	502	499	2	0	40	21	
1	0	0	0	0	505	502	1	0	40	21	
2	0	0	0	0	514	507	2	0	40	21	
3	0	0	0	0	517	512	2	0	40	21	
4	0	0	0	0	519	516	1	0	40	21	
5	0	0	0	0	522	519	3	0	40	21	
6	0	0	0	0	525	519	4	0	40	21	
7	0	0	0	0	526	519	4	1018	40	21	
8	0	0	0	0	518	518	3	1019	40	21	
9	0	0	0	0	512	513	2	1018	40	21	
10	0	0	0	0	514	515	1	1018	40	21	
11	0	0	0	0	515	515	0	1018	40	21	
12	0	0	0	0	511	509	1	1018	40	21	
13	0	0	0	0	508	507	0	1019	40	21	
14	0	0	0	0	504	504	0	1018	40	21	
15	0	0	0	0	499	502	1	371	40	21	
0	0	0	0	0	497	499	0	0	40	21	
1	0	0	0	0	500	499	1	0	40	21	
2	0	0	0	0	506	503	2	0	40	21	
3	0	0	0	0	514	508	1	0	40	21	
4	0	0	0	0	519	513	2	0	40	21	
5	0	0	0	0	521	514	2	0	40	21	
6	0	0	0	0	522	518	2	0	40	21	
7	0	0	0	0	527	517	1	0	40	21	
8	0	0	0	0	523	515	4	1019	40	21	
9	0	0	0	0	517	513	1	1018	40	21	
10	0	0	0	0	514	512	2	1018	40	21	
11	0	0	0	0	512	512	3	1018	40	21	
12	0	0	0	0	514	512	4	1019	40	21	
13	0	0	0	0	508	509	2	1018	40	21	
14	0	0	0	0	506	506	2	1018	40	21	
15	0	0	0	0	502	504	1	1018	40	21	
0	0	0	0	0	496	502	1	0	40	21	
1	0	0	0	0	497	498	0	0	40	21	
2	0	0	0	0	502	499	0	0	40	21	
3	0	0	0	0	513	502	0	0	40	21	
4	0	0	0	0	517	508	3	0	40	21	
5	0	0	0	0	518	511	0	0	40	21	
6	0	0	0	0	519	515	2	0	40	21	
7	0	0	0	0	521	518	3	0	40	21	
8	0	0	0	0	520	515	4	1018	40	21	
9	0	0	0	0	519	514	3	1018	40	21	
10	0	0	0	0	518	511	4	1018	40	21	
11	0	0	0	0	516	511	3	1018	40	21	
12	0	0	0	0	514	511	3	1019	40	21	
13	0	0	0	0	514	508	1	1018	40	21	
14	0	0	0	0	511	505	1	1018	40	21	
15	0	0	0	0	506	504	0	1018	40	21	
0	0	0	0	0	503	499	2	1019	40	21	
1	0	0	0	0	505	496	0	534	40	21	
2	0	0	0	0	504	496	1	0	40	21	
3	0	0	0	0	508	501	1	0	40	21	
4	0	0	0	0	515	507	0	0	40	21	
5	0	0	0	0	520	513	1	0	40	21	
6	0	0	0	0	523	518	0	0	40	21	
7	0	0	0	0	522	519	3	0	40	21	
8	0	0	0	0	521	519	4	0	40	21	
9	0	0	0	0	518	516	3	1019	40	21	
10	0	0	0	0	515	516	3	1018	40	21	
11	0	0	0	0	511	513	2	1018	40	21	
12	0	0	0	0	515	512	3	1018	40	21	
13	0	0	0	0	516	512	3	1018	40	21	
14	0	0	0	0	515	511	2	1018	40	21	
15	0	0	0	0	507	508	0	1018	40	21	
0	0	0	0	0	505	504	1	1019	40	21	
1	0	0	0	0	502	499	0	1018	40	21	
2	0	0	0	0	497	496	0	0	40	21	
3	0	0	0	0	503	497	1	0	40	21	
4	0	0	0	0	510	502	1	0	40	21	
5	0	0	0	0	513	509	1	0	40	21	
6	0	0	0	0	517	515	3	0	40	21	
7	0	0	0	0	520	517	3	0	40	21	
8	0	0	0	0	521	519	3	0	40	21	
9	0	0	0	0	518	519	3	0	40	21	
10	0	0	0	0	520	518	2	1018	40	21	
11	0	0	0	0	518	514	1	1018	40	21	
12	0	0	0	0	518	515	4	1019	40	21	
13	0	0	0	0	518	515	1	1018	40	21	
14	0	0	0	0	510	513	1	1018	40	21	
15	0	0	0	0	507	509	2	1018	40	21	
0	0	0	0	0	505	508	3	1019	40	21	
1	0	0	0	0	503	503	1	1018	40	21	
2	0	0	0	0	498	499	1	0	40	21	
3	0	0	0	0	499	496	1	0	40	21	
4	0	0	0	0	505	499	1	0	40	21	
5	0	0	0	0	515	505	1	0	40	21	
6	0	0	0	0	514	511	1	0	40	21	
7	0	0	0	0	521	515	0	0	40	21	
8	0	0	0	0	531	519	4	0	40	21	
9	0	0	0	0	524	519	2	0	40	21	
10	0	0	0	0	525	518	4	927	40	21	
11	0	0	0	0	518	515	3	1018	40	21	
12	0	0	0	0	513	513	5	1019	40	21	
13	0	0	0	0	516	510	3	1018	40	21	
14	0	0	0	0	512	510	3	1018	40	21	
15	0	0	0	0	514	507	2	1018	40	21	
0	0	0	0	0	507	505	3	1019	40	21	
1	0	0	0	0	503	504	0	1018	40	21	
2	0	0	0	0	503	501	0	1018	40	21	
3	0	0	0	0	501	497	0	0	40	21	
4	0	0	0	0	503	496	3	0	40	21	
5	0	0	0	0	508	499	0	0	40	21	
6	0	0	0	0	514	505	2	0	40	21	
7	0	0	0	0	516	510	2	0	40	21	
8	0	0	0	0	520	513	4	0	40	21	
9	0	0	0	0	527	515	3	0	40	21	
10	0	0	0	0	524	516	4	0	40	21	
11	0	0	0	0	521	516	2	1018	40	21	
12	0	0	0	0	517	515	3	1019	40	21	
13	0	0	0	0	518	513	1	1018	40	21	
14	0	0	0	0	519	513	1	1018	40	21	
15	0	0	0	0	514	513	1	1018	40	21	
0	0	0	0	0	508	508	1	1018	40	21	
1	0	0	0	0	502	504	2	1018	40	21	
2	0	0	0	0	503	501	1	1018	40	21	
3	0	0	0	0	503	498	1	1018	40	21	
4	0	0	0	0	499	498	2	0	40	21	
5	0	0	0	0	504	498	1	0	40	21	
6	0	0	0	0	509	504	1	0	40	21	
7	0	0	0	0	513	511	0	0	40	21	
8	0	0	0	0	518	516	3	0	40	21	
9	0	0	0	0	521	519	1	0	40	21	
10	0	0	0	0	524	519	1	0	40	21	
11	0	0	0	0	520	519	2	0	40	21	
12	0	0	0	0	519	516	2	1018	40	21	
13	0	0	0	0	515	515	4	1018	40	21	
14	0	0	0	0	510	514	3	1018	40	21	
15	0	0	0	0	515	513	3	1018	40	21	
0	0	0	0	0	513	512	3	1019	40	21	
1	0	0	0	0	507	508	2	1018	40	21	
2	0	0	0	0	503	504	0	1018	40	21	
3	0	0	0	0	499	503	0	1018	40	21	
4	0	0	0	0	499	498	1	0	40	21	
5	0	0	0	0	497	497	0	0	40	21	
6	0	0	0	0	503	499	1	0	40	21	
7	0	0	0	0	510	504	1	0	40	21	
8	0	0	0	0	515	509	1	0	40	21	
9	0	0	0	0	522	513	2	0	40	21	
10	0	0	0	0	525	516	3	0	40	21	
11	0	0	0	0	524	515	3	0	40	21	
12	0	0	0	0	523	516	4	946	40	21	
13	0	0	0	0	522	514	4	1018	40	21	
14	0	0	0	0	517	513	2	1018	40	21	
15	0	0	0	0	518	512	1	1018	40	21	
0	0	0	0	0	519	511	3	1018	40	21	
1	0	0	0	0	512	508	1	1018	40	21	
2	0	0	0	0	509	506	0	1018	40	21	
3	0	0	0	0	500	505	2	1018	40	21	
4	0	0	0	0	497	502	0	1018	40	21	
5	0	0	0	0	497	498	1	0	40	21	
6	0	0	0	0	499	498	1	0	40	21	
7	0	0	0	0	504	504	1	0	40	21	
8	0	0	0	0	513	508	2	0	40	21	
9	0	0	0	0	518	514	3	0	40	21	
10	0	0	0	0	524	516	2	0	40	21	
11	0	0	0	0	526	519	2	0	40	21	
12	0	0	0	0	523	519	4	0	40	21	
13	0	0	0	0	519	517	3	1018	40	21	
14	0	0	0	0	521	515	2	1018	40	21	
15	0	0	0	0	519	513	1	1018	40	21	
0	0	0	0	0	518	513	4	1019	40	21	
1	0	0	0	0	512	512	1	1018	40	21	
2	0	0	0	0	512	510	0	1018	40	21	
3	0	0	0	0	510	508	0	1018	40	21	
4	0	0	0	0	505	504	1	1019	40	21	
5	0	0	0	0	501	502	0	1018	40	21	
6	0	0	0	0	499	500	0	0	40	21	
7	0	0	0	0	500	501	0	0	40	21	
8	0	0	0	0	509	506	3	0	40	21	
9	0	0	0	0	516	509	2	0	40	21	
10	0	0	0	0	523	515	2	0	40	21	
11	0	0	0	0	520	518	3	0	40	21	
12	0	0	0	0	519	517	4	0	40	21	
13	0	0	0	0	516	516	4	0	40	21	
14	0	0	0	0	512	515	2	1018	40	21	
15	0	0	0	0	515	513	1	1018	40	21	
0	0	0	0	0	514	513	4	1019	40	21	
1	0	0	0	0	514	513	1	1018	40	21	
2	0	0	0	0	506	512	1	1018	40	21	
3	0	0	0	0	510	511	2	1018	40	21	
4	0	0	0	0	509	508	1	1018	40	21	
5	0	0	0	0	503	503	1	1018	40	21	
6	0	0	0	0	504	502	1	0	40	21	
7	0	0	0	0	500	500	1	0	40	21	
8	0	0	0	0	508	504	1	0	40	21	
9	0	0	0	0	511	506	1	0	40	21	
10	0	0	0	0	518	511	1	0	40	21	
11	0	0	0	0	527	515	1	0	40	21	
12	0	0	0	0	525	517	2	0	40	21	
13	0	0	0	0	518	519	1	0	40	21	
14	0	0	0	0	518	519	3	1018	40	21	
15	0	0	0	0	519	516	3	1018	40	21	
0	0	0	0	0	515	510	3	1019	40	21	
1	0	0	0	0	512	511	3	1019	40	21	
2	0	0	0	0	512	510	3	1018	40	21	
3	0	0	0	0	510	507	2	1018	40	21	
4	0	0	0	0	506	504	2	1018	40	21	
5	0	0	0	0	502	503	0	1018	40	21	
6	0	0	0	0	504	499	0	1018	40	21	
7	0	0	0	0	501	497	0	0	40	21	
8	0	0	0	0	500	497	2	0	40	21	
9	0	0	0	0	505	500	1	0	40	21	
10	0	0	0	0	514	507	2	0	40	21	
11	0	0	0	0	519	513	3	0	40	21	
12	0	0	0	0	526	520	2	0	40	21	
13	0	0	0	0	523	522	3	0	40	21	
14	0	0	0	0	522	522	2	0	40	21	
15	0	0	0	0	520	519	1	1018	40	21	
0	0	0	0	0	516	516	3	1018	40	21	
1	0	0	0	0	518	513	1	1018	40	21	
2	0	0	0	0	515	512	3	1018	40	21	
3	0	0	0	0	513	512	2	1018	40	21	
4	0	0	0	0	508	510	1	1019	40	21	
5	0	0	0	0	506	508	2	1018	40	21	
6	0	0	0	0	500	505	2	1018	40	21	
7	0	0	0	0	500	503	0	1017	40	21	
8	0	0	0	0	501	500	1	0	40	21	
9	0	0	0	0	504	500	0	0	40	21	
10	0	0	0	0	513	505	0	0	40	21	
11	0	0	0	0	513	511	2	0	40	21	
12	0	0	0	0	520	516	3	0	40	21	
13	0	0	0	0	523	519	3	0	40	21	
14	0	0	0	0	523	519	4	0	40	21	
15	0	0	0	0	522	519	3	0	40	21	
0	0	0	0	0	521	516	3	1019	40	21	
1	0	0	0	0	519	514	2	1018	40	21	
2	0	0	0	0	519	514	1	1018	40	21	
3	0	0	0	0	515	513	0	1018	40	21	
4	0	0	0	0	514	510	4	1019	40	21	
5	0	0	0	0	511	509	1	1018	40	21	
6	0	0	0	0	507	506	2	1018	40	21	
7	0	0	0	0	497	502	1	1018	40	21	
8	0	0	0	0	496	498	1	1017	40	21	
9	0	0	0	0	501	497	1	0	40	21	
10	0	0	0	0	509	502	1	0	40	21	
11	0	0	0	0	513	508	0	0	40	21	
12	0	0	0	0	517	515	2	0	40	21	
13	0	0	0	0	522	518	1	0	40	21	
14	0	0	0	0	523	520	1	0	40	21	
15	0	0	0	0	523	520	3	0	40	21	
0	0	0	0	0	520	518	3	1019	40	21	
1	0	0	0	0	519	517	3	1018	40	21	
2	0	0	0	0	516	515	4	1018	40	21	
3	0	0	0	0	515	515	3	1018	40	21	
4	0	0	0	0	512	514	3	1019	40	21	
5	0	0	0	0	510	511	2	1018	40	21	
6	0	0	0	0	504	508	1	1018	40	21	
7	0	0	0	0	503	505	0	1018	40	21	
8	0	0	0	0	499	501	2	1018	40	21	
9	0	0	0	0	501	497	0	0	40	21	
10	0	0	0	0	504	498	0	0	40	21	
11	0	0	0	0	508	503	0	0	40	21	
12	0	0	0	0	514	509	2	0	40	21	
13	0	0	0	0	519	512	1	0	40	21	
14	0	0	0	0	524	516	1	0	40	21	
15	0	0	0	0	524	519	1	0	40	21	
0	0	0	0	0	522	518	4	0	40	21	
1	0	0	0	0	522	517	3	1018	40	21	
2	0	0	0	0	519	515	3	1018	40	21	
3	0	0	0	0	517	512	3	1018	40	21	
4	0	0	0	0	516	513	4	1019	40	21	
5	0	0	0	0	512	512	3	1018	40	21	
6	0	0	0	0	511	509	1	1018	40	21	
7	0	0	0	0	507	505	0	1018	40	21	
8	0	0	0	0	506	503	1	1019	40	21	
9	0	0	0	0	499	500	0	121	40	21	
10	0	0	0	0	496	498	0	0	40	21	
11	0	0	0	0	507	498	0	0	40	21	
12	0	0	0	0	510	502	0	0	40	21	
13	0	0	0	0	515	508	1	0	40	21	
14	0	0	0	0	519	515	3	0	40	21	
15	0	0	0	0	522	518	3	0	40	21	
0	0	0	0	0	523	518	3	0	40	21	
1	0	0	0	0	517	518	2	0	40	21	
2	0	0	0	0	519	516	2	1018	40	21	
3	0	0	0	0	518	512	1	1018	40	21	
4	0	0	0	0	516	512	4	1019	40	21	
5	0	0	0	0	512	513	3	1019	40	21	
6	0	0	0	0	510	512	3	1018	40	21	
7	0	0	0	0	510	510	1	1018	40	21	
8	0	0	0	0	505	505	2	1018	40	21	
9	0	0	0	0	502	502	1	1018	40	21	
10	0	0	0	0	501	502	0	0	40	21	
11	0	0	0	0	497	501	0	0	40	21	
12	0	0	0	0	504	505	1	0	40	21	
13	0	0	0	0	511	510	0	0	40	21	
14	0	0	0	0	518	516	1	0	40	21	
15	0	0	0	0	524	521	3	0	40	21	
0	0	0	0	0	524	522	4	0	40	21	
1	0	0	0	0	524	522	3	0	40	21	
2	0	0	0	0	519	521	4	1018	40	21	
3	0	0	0	0	519	519	4	1018	40	21	
4	0	0	0	0	516	517	2	1019	40	21	
5	0	0	0	0	512	515	2	1019	40	21	
6	0	0	0	0	510	516	0	1018	40	21	
7	0	0	0	0	512	515	0	1018	40	21	
8	0	0	0	0	505	513	3	1019	40	21	
9	0	0	0	0	506	509	0	1018	40	21	
10	0	0	0	0	497	505	1	1018	40	21	
11	0	0	0	0	498	504	0	0	40	21	
12	0	0	0	0	505	500	0	0	40	21	
13	0	0	0	0	509	507	1	0	40	21	
14	0	0	0	0	516	515	1	0	40	21	
15	0	0	0	0	520	518	1	0	40	21	
0	0	0	0	0	526	519	3	0	40	21	
1	0	0	0	0	527	518	2	0	40	21	
2	0	0	0	0	522	519	1	0	40	21	
3	0	0	0	0	522	518	2	1018	40	21	
4	0	0	0	0	519	514	3	1018	40	21	
5	0	0	0	0	515	512	3	1018	40	21	
6	0	0	0	0	518	514	3	1018	40	21	
7	0	0	0	0	515	514	2	1018	40	21	
8	0	0	0	0	511	511	3	1019	40	21	
9	0	0	0	0	505	507	2	1019	40	21	
10	0	0	0	0	499	504	0	1018	40	21	
11	0	0	0	0	497	501	0	1018	40	21	
12	0	0	0	0	500	499	1	0	40	21	
13	0	0	0	0	504	499	0	0	40	21	
14	0	0	0	0	511	505	0	0	40	21	
15	0	0	0	0	519	510	0	0	40	21	
0	0	0	0	0	519	516	3	0	40	21	
1	0	0	0	0	517	519	3	0	40	21	
2	0	0	0	0	521	520	3	0	40	21	
3	0	0	0	0	519	519	3	0	40	21	
4	0	0	0	0	518	518	2	1019	40	21	
5	0	0	0	0	515	517	3	1018	40	21	
6	0	0	0	0	513	515	2	1018	40	21	
7	0	0	0	0	515	514	1	1018	40	21	
8	0	0	0	0	510	513	3	1019	40	21	
9	0	0	0	0	505	509	0	1018	40	21	
10	0	0	0	0	504	507	0	1018	40	21	
11	0	0	0	0	500	505	0	1018	40	21	
12	0	0	0	0	504	502	2	0	40	21	
13	0	0	0	0	501	499	1	0	40	21	
14	0	0	0	0	511	502	1	0	40	21	
15	0	0	0	0	518	507	1	0	40	21	
0	0	0	0	0	520	511	3	0	40	21	
1	0	0	0	0	525	515	3	0	40	21	
2	0	0	0	0	523	516	2	0	40	21	
3	0	0	0	0	525	518	1	0	40	21	
4	0	0	0	0	519	516	4	834	40	21	
5	0	0	0	0	515	515	1	1018	40	21	
6	0	0	0	0	513	512	2	1018	40	21	
7	0	0	0	0	518	514	1	1018	40	21	
8	0	0	0	0	512	513	1	1018	40	21	
9	0	0	0	0	512	511	2	1018	40	21	
10	0	0	0	0	507	508	2	1018	40	21	
11	0	0	0	0	502	506	1	1018	40	21	
12	0	0	0	0	499	503	3	777	40	21	
13	0	0	0	0	499	500	0	0	40	21	
14	0	0	0	0	496	499	2	0	40	21	
15	0	0	0	0	503	503	0	0	40	21	
0	0	0	0	0	509	508	1	0	40	21	
1	0	0	0	0	512	513	2	0	40	21	
2	0	0	0	0	513	516	1	0	40	21	
3	0	0	0	0	519	520	2	0	40	21	
4	0	0	0	0	522	520	3	0	40	21	
5	0	0	0	0	518	517	3	1018	40	21	
6	0	0	0	0	514	515	2	1019	40	21	
7	0	0	0	0	512	515	1	1018	40	21	
8	0	0	0	0	513	514	3	1018	40	21	
9	0	0	0	0	511	514	1	1018	40	21	
10	0	0	0	0	508	511	0	1018	40	21	
11	0	0	0	0	507	507	0	1018	40	21	
12	0	0	0	0	504	503	2	1019	40	21	
13	0	0	0	0	500	497	0	1018	40	21	
14	0	0	0	0	501	496	0	0	40	21	
15	0	0	0	0	508	499	0	0	40	21	
0	0	0	0	0	516	505	3	0	40	21	
1	0	0	0	0	520	510	0	0	40	21	
2	0	0	0	0	526	515	3	0	40	21	
3	0	0	0	0	527	517	3	0	40	21	
4	0	0	0	0	532	519	4	0	40	21	
5	0	0	0	0	532	518	4	647	40	21	
6	0	0	0	0	534	517	3	1018	40	21	
7	0	0	0	0	532	514	2	1018	40	21	
8	0	0	0	0	530	514	3	1019	40	21	
9	0	0	0	0	527	514	1	1018	40	21	
10	0	0	0	0	523	512	1	1018	40	21	
11	0	0	0	0	522	511	0	1018	40	21	
12	0	0	0	0	513	508	1	1019	40	21	
13	0	0	0	0	506	504	0	1018	40	21	
14	0	0	0	0	501	502	1	0	40	21	
15	0	0	0	0	501	499	1	0	40	21	
0	0	0	0	0	507	505	2	0	40	21	
1	0	0	0	0	511	508	2	0	40	21	
2	0	0	0	0	513	513	2	0	40	21	
3	0	0	0	0	519	518	3	0	40	21	
4	0	0	0	0	520	521	3	0	40	21	
5	0	0	0	0	519	519	3	0	40	21	
6	0	0	0	0	518	517	2	1018	40	21	
7	0	0	0	0	513	517	2	1018	40	21	
8	0	0	0	0	513	513	3	1018	40	21	
9	0	0	0	0	511	513	1	1019	40	21	
10	0	0	0	0	507	515	1	1018	40	21	
11	0	0	0	0	504	511	2	1018	40	21	
12	0	0	0	0	500	508	3	1019	40	21	
13	0	0	0	0	494	504	1	1018	40	21	
14	0	0	0	0	492	502	2	1018	40	21	
15	0	0	0	0	492	500	1	0	40	21	
0	0	0	0	0	497	500	1	0	40	21	
1	0	0	0	0	503	505	0	0	40	21	
2	0	0	0	0	509	510	0	0	40	21	
3	0	0	0	0	517	517	0	0	40	21	
4	0	0	0	0	520	519	3	0	40	21	
5	0	0	0	0	520	520	2	0	40	21	
6	0	0	0	0	519	521	3	0	40	21	
7	0	0	0	0	518	520	3	1018	40	21	
8	0	0	0	0	514	517	4	1019	40	21	
9	0	0	0	0	515	516	3	1018	40	21	
10	0	0	0	0	515	516	2	1018	40	21	
11	0	0	0	0	515	513	1	1018	40	21	
12	0	0	0	0	506	509	3	1018	40	21	
13	0	0	0	0	498	506	0	1018	40	21	
14	0	0	0	0	499	503	0	1018	40	21	
15	0	0	0	0	504	499	0	540	40	21	
0	0	0	0	0	500	499	2	0	40	21	
1	0	0	0	0	505	500	1	0	40	21	
2	0	0	0	0	510	507	1	0	40	21	
3	0	0	0	0	511	511	1	0	40	21	
4	0	0	0	0	519	515	4	0	40	21	
5	0	0	0	0	520	515	3	0	40	21	
6	0	0	0	0	525	517	3	0	40	21	
7	0	0	0	0	521	518	3	0	40	21	
8	0	0	0	0	522	519	3	1019	40	21	
9	0	0	0	0	519	514	2	1018	40	21	
10	0	0	0	0	519	512	1	1018	40	21	
11	0	0	0	0	519	512	1	1018	40	21	
12	0	0	0	0	508	509	2	1019	40	21	
13	0	0	0	0	509	509	0	1018	40	21	
14	0	0	0	0	509	504	2	1018	40	21	
15	0	0	0	0	505	502	1	1017	40	21	
0	0	0	0	0	504	500	0	0	40	21	
1	0	0	0	0	502	498	1	0	40	21	
2	0	0	0	0	508	500	1	0	40	21	
3	0	0	0	0	514	506	2	0	40	21	
4	0	0	0	0	519	510	3	0	40	21	
5	0	0	0	0	526	514	3	0	40	21	
6	0	0	0	0	521	519	2	0	40	21	
7	0	0	0	0	522	520	1	0	40	21	
8	0	0	0	0	521	518	4	1018	40	21	
9	0	0	0	0	518	516	1	1018	40	21	
10	0	0	0	0	514	512	2	1018	40	21	
11	0	0	0	0	512	513	3	1018	40	21	
12	0	0	0	0	516	514	3	1019	40	21	
13	0	0	0	0	510	511	3	1018	40	21	
14	0	0	0	0	509	507	2	1018	40	21	
15	0	0	0	0	505	504	2	1018	40	21	
0	0	0	0	0	503	500	3	1019	40	21	
1	0	0	0	0	502	497	1	0	40	21	
2	0	0	0	0	503	499	1	0	40	21	
3	0	0	0	0	504	504	1	0	40	21	
4	0	0	0	0	517	509	2	0	40	21	
5	0	0	0	0	521	512	2	0	40	21	
6	0	0	0	0	523	516	3	0	40	21	
7	0	0	0	0	526	519	3	0	40	21	
8	0	0	0	0	524	516	4	0	40	21	
9	0	0	0	0	524	515	4	1018	40	21	
10	0	0	0	0	515	512	3	1018	40	21	
11	0	0	0	0	513	512	2	1018	40	21	
12	0	0	0	0	511	512	3	1019	40	21	
13	0	0	0	0	512	511	3	1018	40	21	
14	0	0	0	0	509	511	2	1018	40	21	
15	0	0	0	0	504	509	1	1018	40	21	
0	0	0	0	0	505	505	1	1019	40	21	
1	0	0	0	0	499	503	1	0	40	21	
2	0	0	0	0	496	501	0	0	40	21	
3	0	0	0	0	502	503	0	0	40	21	
4	0	0	0	0	512	507	1	0	40	21	
5	0	0	0	0	517	511	1	0	40	21	
6	0	0	0	0	521	515	1	0	40	21	
7	0	0	0	0	524	519	1	0	40	21	
8	0	0	0	0	524	519	3	0	40	21	
9	0	0	0	0	521	521	2	1018	40	21	
10	0	0	0	0	517	518	1	1018	40	21	
11	0	0	0	0	514	515	1	1018	40	21	
12	0	0	0	0	512	516	3	1019	40	21	
13	0	0	0	0	511	515	1	1018	40	21	
14	0	0	0	0	512	513	0	1019	40	21	
15	0	0	0	0	513	510	0	1018	40	21	
0	0	0	0	0	507	506	2	1019	40	21	
1	0	0	0	0	499	503	0	1018	40	21	
2	0	0	0	0	500	499	0	0	40	21	
3	0	0	0	0	504	498	0	0	40	21	
4	0	0	0	0	501	501	0	0	40	21	
5	0	0	0	0	512	505	0	0	40	21	
6	0	0	0	0	523	510	0	0	40	21	
7	0	0	0	0	527	515	3	0	40	21	
8	0	0	0	0	521	516	2	0	40	21	
9	0	0	0	0	523	515	2	0	40	21	
10	0	0	0	0	520	515	4	1018	40	21	
11	0	0	0	0	516	513	3	1018	40	21	
12	0	0	0	0	514	510	2	1019	40	21	
13	0	0	0	0	512	512	3	1018	40	21	
14	0	0	0	0	515	511	2	1018	40	21	
15	0	0	0	0	512	509	2	1018	40	21	
0	0	0	0	0	509	508	3	1019	40	21	
1	0	0	0	0	504	503	2	1018	40	21	
2	0	0	0	0	496	501	1	1018	40	21	
3	0	0	0	0	500	500	0	0	40	21	
4	0	0	0	0	503	500	2	0	40	21	
5	0	0	0	0	509	505	1	0	40	21	
6	0	0	0	0	515	509	2	0	40	21	
7	0	0	0	0	519	515	1	0	40	21	
8	0	0	0	0	524	517	2	0	40	21	
9	0	0	0	0	522	516	2	0	40	21	
10	0	0	0	0	520	516	2	0	40	21	
11	0	0	0	0	518	515	1	1018	40	21	
12	0	0	0	0	519	512	4	1019	40	21	
13	0	0	0	0	513	509	2	1018	40	21	
14	0	0	0	0	511	510	3	1018	40	21	
15	0	0	0	0	511	511	2	1018	40	21	
0	0	0	0	0	507	508	1	1018	40	21	
1	0	0	0	0	504	505	2	1018	40	21	
2	0	0	0	0	504	503	2	1018	40	21	
3	0	0	0	0	503	501	1	1017	40	21	
4	0	0	0	0	502	499	1	0	40	21	
5	0	0	0	0	506	501	0	0	40	21	
6	0	0	0	0	510	506	0	0	40	21	
7	0	0	0	0	519	513	0	0	40	21	
8	0	0	0	0	527	518	3	0	40	21	
9	0	0	0	0	528	519	1	0	40	21	
10	0	0	0	0	524	519	2	0	40	21	
11	0	0	0	0	521	518	2	1018	40	21	
12	0	0	0	0	519	514	4	1019	40	21	
13	0	0	0	0	517	510	3	1018	40	21	
14	0	0	0	0	514	511	3	1018	40	21	
15	0	0	0	0	514	512	2	1018	40	21	
0	0	0	0	0	509	511	3	1019	40	21	
1	0	0	0	0	505	507	2	1018	40	21	
2	0	0	0	0	504	504	1	1018	40	21	
3	0	0	0	0	499	500	1	1018	40	21	
4	0	0	0	0	504	497	2	0	40	21	
5	0	0	0	0	501	496	1	0	40	21	
6	0	0	0	0	504	499	1	0	40	21	
7	0	0	0	0	509	506	2	0	40	20	
8	0	0	0	0	521	511	3	0	40	21	
9	0	0	0	0	519	516	3	0	40	21	
10	0	0	0	0	526	517	3	0	40	20	
11	0	0	0	0	523	519	3	0	40	21	
12	0	0	0	0	517	518	4	1018	40	20	
13	0	0	0	0	516	515	3	1018	40	20	
14	0	0	0	0	515	510	2	1018	40	20	
15	0	0	0	0	514	511	1	1018	40	21	
0	0	0	0	0	514	510	3	1018	40	20	
1	0	0	0	0	511	507	1	1018	40	20	
2	0	0	0	0	507	503	0	1018	40	21	
3	0	0	0	0	504	502	0	1018	40	20	
4	0	0	0	0	501	500	2	506	40	20	
5	0	0	0	0	502	498	0	0	40	20	
6	0	0	0	0	502	498	0	0	40	20	
7	0	0	0	0	509	504	0	0	40	20	
8	0	0	0	0	513	509	3	0	40	20	
9	0	0	0	0	519	514	1	0	40	20	
10	0	0	0	0	521	518	3	0	40	20	
11	0	0	0	0	523	520	3	0	40	20	
12	0	0	0	0	523	521	5	0	40	20	
13	0	0	0	0	521	518	4	1019	40	20	
14	0	0	0	0	518	513	4	1018	40	20	
15	0	0	0	0	514	513	2	1018	40	20	
0	0	0	0	0	514	514	3	1019	40	20	
1	0	0	0	0	510	512	1	1018	40	20	
2	0	0	0	0	508	508	0	1018	40	20	
3	0	0	0	0	504	504	0	1018	40	20	
4	0	0	0	0	503	502	3	1019	40	20	
5	0	0	0	0	500	498	0	1018	40	20	
6	0	0	0	0	500	496	1	0	40	20	
7	0	0	0	0	503	497	1	0	40	20	
8	0	0	0	0	513	505	3	0	40	20	
9	0	0	0	0	516	509	1	0	40	20	
10	0	0	0	0	522	513	3	0	40	20	
11	0	0	0	0	523	518	3	0	40	20	
12	0	0	0	0	524	519	3	0	40	20	
13	0	0	0	0	521	519	3	1018	40	20	
14	0	0	0	0	518	516	2	1018	40	20	
15	0	0	0	0	516	513	1	1018	40	20	
0	0	0	0	0	515	513	4	1019	40	20	
1	0	0	0	0	514	512	1	1018	40	20	
2	0	0	0	0	510	511	3	1018	40	20	
3	0	0	0	0	508	510	2	1018	40	20	
4	0	0	0	0	504	507	3	1019	40	20	
5	0	0	0	0	500	504	1	1018	40	20	
6	0	0	0	0	501	503	1	0	40	20	
7	0	0	0	0	501	500	1	0	40	20	
8	0	0	0	0	505	503	1	0	40	20	
9	0	0	0	0	513	506	0	0	40	20	
10	0	0	0	0	520	511	1	0	40	20	
11	0	0	0	0	524	516	0	0	40	20	
12	0	0	0	0	521	517	3	0	40	20	
13	0	0	0	0	520	518	1	0	40	20	
14	0	0	0	0	520	518	3	1018	40	20	
15	0	0	0	0	518	517	3	1018	40	20	
0	0	0	0	0	516	513	4	1019	40	20	
1	0	0	0	0	512	511	3	1018	40	20	
2	0	0	0	0	509	510	3	1018	40	20	
3	0	0	0	0	511	509	2	1018	40	20	
4	0	0	0	0	509	507	2	1019	40	20	
5	0	0	0	0	503	503	0	1018	40	20	
6	0	0	0	0	501	499	0	1018	40	20	
7	0	0	0	0	501	499	0	0	40	20	
8	0	0	0	0	505	500	0	0	40	20	
9	0	0	0	0	510	505	1	0	40	20	
10	0	0	0	0	518	510	2	0	40	20	
11	0	0	0	0	523	516	3	0	40	20	
12	0	0	0	0	525	517	3	0	40	20	
13	0	0	0	0	523	518	3	0	40	20	
14	0	0	0	0	520	518	2	0	40	20	
15	0	0	0	0	519	518	1	1018	40	20	
0	0	0	0	0	517	514	3	1018	40	20	
1	0	0	0	0	516	516	0	1018	40	20	
2	0	0	0	0	514	515	3	1018	40	20	
3	0	0	0	0	512	515	2	1018	40	20	
4	0	0	0	0	508	509	1	1018	40	20	
5	0	0	0	0	506	507	2	1019	40	20	
6	0	0	0	0	499	504	1	1018	40	20	
7	0	0	0	0	502	503	1	0	40	20	
8	0	0	0	0	494	502	2	0	40	20	
9	0	0	0	0	500	503	1	0	40	20	
10	0	0	0	0	508	509	0	0	40	20	
11	0	0	0	0	519	516	0	0	40	20	
12	0	0	0	0	527	521	3	0	40	20	
13	0	0	0	0	526	521	1	0	40	20	
14	0	0	0	0	524	521	2	0	40	20	
15	0	0	0	0	525	521	3	557	40	20	
0	0	0	0	0	519	519	5	1019	40	20	
1	0	0	0	0	516	515	4	1018	40	20	
2	0	0	0	0	515	517	2	1018	40	20	
3	0	0	0	0	512	517	1	1018	40	20	
4	0	0	0	0	510	515	1	1019	40	20	
5	0	0	0	0	511	512	1	1018	40	20	
6	0	0	0	0	507	508	0	1018	40	20	
7	0	0	0	0	503	506	0	1018	40	20	
8	0	0	0	0	502	502	1	0	40	20	
9	0	0	0	0	503	501	0	0	40	20	
10	0	0	0	0	510	505	0	0	40	20	
11	0	0	0	0	518	512	0	0	40	20	
12	0	0	0	0	519	516	1	0	40	20	
13	0	0	0	0	523	517	1	0	40	20	
14	0	0	0	0	528	518	3	0	40	20	
15	0	0	0	0	526	519	2	0	40	20	
0	0	0	0	0	521	515	4	1019	40	20	
1	0	0	0	0	516	514	3	1018	40	20	
2	0	0	0	0	516	511	3	1018	40	20	
3	0	0	0	0	512	511	2	1018	40	20	
4	0	0	0	0	513	510	3	1018	40	20	
5	0	0	0	0	507	508	1	1018	40	20	
6	0	0	0	0	504	504	0	1018	40	20	
7	0	0	0	0	503	502	0	1018	40	20	
8	0	0	0	0	502	498	3	210	40	20	
9	0	0	0	0	499	494	0	0	40	20	
10	0	0	0	0	504	494	1	0	40	20	
11	0	0	0	0	512	501	1	0	40	20	
12	0	0	0	0	514	507	2	0	40	20	
13	0	0	0	0	519	513	2	0	40	20	
14	0	0	0	0	524	516	3	0	40	20	
15	0	0	0	0	524	518	3	0	40	20	
0	0	0	0	0	522	516	4	0	40	20	
1	0	0	0	0	518	516	3	1018	40	20	
2	0	0	0	0	517	514	1	1018	40	20	
3	0	0	0	0	516	514	0	1018	40	20	
4	0	0	0	0	517	512	3	1018	40	20	
5	0	0	0	0	513	512	1	1018	40	20	
6	0	0	0	0	509	510	2	1018	40	20	
7	0	0	0	0	504	508	1	1018	40	20	
8	0	0	0	0	505	505	2	1018	40	20	
9	0	0	0	0	501	501	1	0	40	20	
10	0	0	0	0	497	500	1	0	40	20	
11	0	0	0	0	503	502	0	0	40	20	
12	0	0	0	0	512	509	1	0	40	20	
13	0	0	0	0	515	513	0	0	40	20	
14	0	0	0	0	521	519	1	0	40	20	
15	0	0	0	0	522	521	1	0	40	20	
0	0	0	0	0	523	519	3	0	40	20	
1	0	0	0	0	519	518	4	1018	40	20	
2	0	0	0	0	515	516	3	1018	40	20	
3	0	0	0	0	516	515	3	1018	40	20	
4	0	0	0	0	518	515	2	1019	40	20	
5	0	0	0	0	515	513	3	1019	40	20	
6	0	0	0	0	510	511	1	1018	40	20	
7	0	0	0	0	507	511	0	1018	40	20	
8	0	0	0	0	502	507	2	1019	40	20	
9	0	0	0	0	500	504	0	1018	40	20	
10	0	0	0	0	499	501	0	0	40	20	
11	0	0	0	0	502	500	1	0	40	20	
12	0	0	0	0	510	504	1	0	40	20	
13	0	0	0	0	512	510	1	0	40	20	
14	0	0	0	0	517	516	3	0	40	20	
15	0	0	0	0	520	519	3	0	40	20	
0	0	0	0	0	523	518	3	0	40	20	
1	0	0	0	0	525	518	3	0	40	20	
2	0	0	0	0	521	519	3	1018	40	20	
3	0	0	0	0	516	516	2	1018	40	20	
4	0	0	0	0	518	515	3	1019	40	20	
5	0	0	0	0	515	515	0	1018	40	20	
6	0	0	0	0	512	513	0	1018	40	20	
7	0	0	0	0	511	510	2	1018	40	20	
8	0	0	0	0	505	507	3	1019	40	20	
9	0	0	0	0	501	504	1	1018	40	20	
10	0	0	0	0	499	500	1	0	40	20	
11	0	0	0	0	500	498	0	0	40	20	
12	0	0	0	0	504	499	1	0	40	20	
13	0	0	0	0	510	504	0	0	40	20	
14	0	0	0	0	517	510	0	0	40	20	
15	0	0	0	0	519	516	0	0	40	20	
0	0	0	0	0	524	518	3	0	40	20	
1	0	0	0	0	523	518	2	0	40	20	
2	0	0	0	0	520	520	3	876	40	20	
3	0	0	0	0	521	519	3	1018	40	20	
4	0	0	0	0	518	515	4	1018	40	20	
5	0	0	0	0	516	514	3	1018	40	20	
6	0	0	0	0	516	513	3	1018	40	20	
7	0	0	0	0	510	512	1	1018	40	20	
8	0	0	0	0	508	511	2	1019	40	20	
9	0	0	0	0	505	505	0	1018	40	20	
10	0	0	0	0	501	499	0	1018	40	20	
11	0	0	0	0	497	499	0	0	40	20	
12	0	0	0	0	497	498	3	0	40	20	
13	0	0	0	0	502	498	0	0	40	20	
14	0	0	0	0	510	505	2	0	40	20	
15	0	0	0	0	516	510	1	0	40	20	
0	0	0	0	0	523	513	4	0	40	20	
1	0	0	0	0	524	515	3	0	40	20	
2	0	0	0	0	521	516	4	0	40	20	
3	0	0	0	0	519	516	4	1018	40	20	
4	0	0	0	0	516	515	3	1019	40	20	
5	0	0	0	0	522	511	2	1018	40	20	
6	0	0	0	0	519	511	1	1018	40	20	
7	0	0	0	0	516	512	0	1018	40	20	
8	0	0	0	0	511	511	3	1019	40	20	
9	0	0	0	0	508	508	0	1018	40	20	
10	0	0	0	0	503	506	2	1018	40	20	
11	0	0	0	0	503	502	1	1017	40	20	
12	0	0	0	0	502	499	2	0	40	20	
13	0	0	0	0	499	498	1	0	40	20	
14	0	0	0	0	509	504	1	0	40	20	
15	0	0	0	0	512	509	0	0	40	20	
0	0	0	0	0	519	515	3	0	40	20	
1	0	0	0	0	523	519	1	0	40	20	
2	0	0	0	0	520	521	1	0	40	20	
3	0	0	0	0	522	522	1	0	40	20	
4	0	0	0	0	520	520	3	1018	40	20	
5	0	0	0	0	517	518	3	1018	40	20	
6	0	0	0	0	518	517	3	1018	40	20	
7	0	0	0	0	514	516	3	1018	40	20	
8	0	0	0	0	513	515	1	1018	40	20	
9	0	0	0	0	509	513	3	1018	40	20	
10	0	0	0	0	505	509	1	1018	40	20	
11	0	0	0	0	503	506	0	1018	40	20	
12	0	0	0	0	500	502	0	1019	40	20	
13	0	0	0	0	499	500	0	0	40	20	
14	0	0	0	0	503	502	0	0	40	20	
15	0	0	0	0	509	508	1	0	40	20	
0	0	0	0	0	515	513	1	0	40	20	
1	0	0	0	0	519	516	3	0	40	20	
2	0	0	0	0	519	519	2	0	40	20	
3	0	0	0	0	522	520	3	0	40	20	
4	0	0	0	0	521	516	3	0	40	20	
5	0	0	0	0	521	516	3	1018	40	20	
6	0	0	0	0	517	510	2	1018	40	20	
7	0	0	0	0	514	510	0	1018	40	20	
8	0	0	0	0	515	511	3	1019	40	20	
9	0	0	0	0	511	510	0	1018	40	20	
10	0	0	0	0	507	509	1	1018	40	20	
11	0	0	0	0	504	506	2	1018	40	19	
12	0	0	0	0	503	502	0	1018	40	20	
13	0	0	0	0	503	499	1	0	40	20	
14	0	0	0	0	502	499	1	0	40	20	
15	0	0	0	0	508	502	1	0	40	19	
0	0	0	0	0	513	506	1	0	40	20	
1	0	0	0	0	520	512	1	0	40	19	
2	0	0	0	0	523	518	1	0	40	20	
3	0	0	0	0	524	519	1	0	40	20	
4	0	0	0	0	524	519	3	0	40	19	
5	0	0	0	0	521	517	2	1018	40	19	
6	0	0	0	0	517	514	3	1018	40	19	
7	0	0	0	0	516	513	3	1018	40	19	
8	0	0	0	0	515	513	3	1018	40	19	
9	0	0	0	0	515	513	3	1018	40	19	
10	0	0	0	0	511	511	3	1018	40	19	
11	0	0	0	0	504	510	2	1018	40	19	
12	0	0	0	0	504	504	1	1018	40	19	
13	0	0	0	0	499	501	0	1018	40	19	
14	0	0	0	0	499	497	0	0	40	19	
15	0	0	0	0	501	497	0	0	40	19	
0	0	0	0	0	507	502	2	0	40	19	
1	0	0	0	0	514	506	0	0	40	19	
2	0	0	0	0	517	511	3	0	40	19	
3	0	0	0	0	519	515	3	0	40	19	
4	0	0	0	0	523	516	3	0	40	19	
5	0	0	0	0	521	516	3	0	40	19	
6	0	0	0	0	519	514	4	1018	40	19	
7	0	0	0	0	516	512	3	1018	40	19	
8	0	0	0	0	517	511	3	1018	40	19	
9	0	0	0	0	514	511	2	1018	40	19	
10	0	0	0	0	512	511	1	1018	40	19	
11	0	0	0	0	509	509	0	1018	40	19	
12	0	0	0	0	508	505	1	1019	40	19	
13	0	0	0	0	504	502	0	1018	40	19	
14	0	0	0	0	499	502	2	571	40	19	
15	0	0	0	0	497	502	0	0	40	19	
0	0	0	0	0	502	502	0	0	40	19	
1	0	0	0	0	510	507	2	0	40	19	
2	0	0	0	0	515	509	2	0	40	19	
3	0	0	0	0	517	513	2	0	40	19	
4	0	0	0	0	522	518	4	0	40	19	
5	0	0	0	0	520	517	3	0	40	19	
6	0	0	0	0	520	517	4	1018	40	19	
7	0	0	0	0	520	516	3	1018	40	19	
8	0	0	0	0	516	515	4	1019	40	19	
9	0	0	0	0	513	514	3	1018	40	19	
10	0	0	0	0	515	514	3	1018	40	19	
11	0	0	0	0	515	513	3	1018	40	19	
12	0	0	0	0	513	508	3	1019	40	19	
13	0	0	0	0	510	505	2	1019	40	19	
14	0	0	0	0	503	502	1	1018	40	19	
15	0	0	0	0	504	500	1	1017	40	19	
0	0	0	0	0	503	498	1	0	40	19	
1	0	0	0	0	506	501	1	0	40	19	
2	0	0	0	0	511	506	1	0	40	19	
3	0	0	0	0	517	511	0	0	40	19	
4	0	0	0	0	520	515	3	0	40	19	
5	0	0	0	0	524	516	1	0	40	19	
6	0	0	0	0	520	517	1	0	40	19	
7	0	0	0	0	520	515	2	1018	40	19	
8	0	0	0	0	517	510	2	1019	40	19	
9	0	0	0	0	515	508	1	1018	40	19	
10	0	0	0	0	515	510	3	1018	40	19	
11	0	0	0	0	516	510	3	1018	40	19	
12	0	0	0	0	508	508	1	1018	40	19	
13	0	0	0	0	501	505	2	1018	40	19	
14	0	0	0	0	499	503	2	1018	40	19	
15	0	0	0	0	503	500	0	1017	40	19	
0	0	0	0	0	504	497	1	0	40	19	
1	0	0	0	0	502	498	0	0	40	19	
2	0	0	0	0	511	503	0	0	40	19	
3	0	0	0	0	517	508	0	0	40	19	
4	0	0	0	0	524	515	4	0	40	19	
5	0	0	0	0	523	516	3	0	40	19	
6	0	0	0	0	522	517	3	0	40	19	
7	0	0	0	0	523	518	2	0	40	19	
8	0	0	0	0	521	516	5	1019	40	19	
9	0	0	0	0	518	512	4	1018	40	19	
10	0	0	0	0	516	512	2	1018	40	19	
11	0	0	0	0	515	513	1	1018	40	19	
12	0	0	0	0	512	512	3	1018	40	19	
13	0	0	0	0	509	508	0	1018	40	19	
14	0	0	0	0	506	507	0	1018	40	19	
15	0	0	0	0	502	503	2	1018	40	19	
0	0	0	0	0	502	499	1	0	40	19	
1	0	0	0	0	498	497	1	0	40	19	
2	0	0	0	0	503	498	1	0	40	19	
3	0	0	0	0	509	504	1	0	40	19	
4	0	0	0	0	515	511	2	0	40	19	
5	0	0	0	0	520	513	1	0	40	19	
6	0	0	0	0	521	516	1	0	40	19	
7	0	0	0	0	521	517	1	0	40	19	
8	0	0	0	0	521	518	4	0	40	19	
9	0	0	0	0	519	516	2	1018	40	19	
10	0	0	0	0	514	511	1	1018	40	19	
11	0	0	0	0	515	511	1	1018	40	19	
12	0	0	0	0	515	511	3	1019	40	19	
13	0	0	0	0	509	510	3	1018	40	19	
14	0	0	0	0	510	507	2	1018	40	19	
15	0	0	0	0	506	504	2	1018	40	19	
0	0	0	0	0	503	502	1	1018	40	19	
1	0	0	0	0	503	500	1	0	40	19	
2	0	0	0	0	501	499	0	0	40	19	
3	0	0	0	0	505	502	0	0	40	19	
4	0	0	0	0	513	507	2	0	40	19	
5	0	0	0	0	517	513	0	0	40	19	
6	0	0	0	0	523	518	3	0	40	19	
7	0	0	0	0	525	520	3	0	40	19	
8	0	0	0	0	524	519	3	0	40	19	
9	0	0	0	0	522	519	4	1018	40	19	
10	0	0	0	0	519	517	4	1018	40	19	
11	0	0	0	0	516	516	2	1018	40	19	
12	0	0	0	0	515	512	2	1018	40	19	
13	0	0	0	0	508	513	1	1018	40	19	
14	0	0	0	0	508	512	0	1018	40	19	
15	0	0	0	0	508	508	0	1018	40	19	
0	0	0	0	0	503	503	1	1018	40	19	
1	0	0	0	0	498	500	0	0	40	19	
2	0	0	0	0	498	499	1	0	40	19	
3	0	0	0	0	500	501	1	0	40	19	
4	0	0	0	0	505	504	1	0	40	19	
5	0	0	0	0	514	509	2	0	40	19	
6	0	0	0	0	518	515	3	0	40	19	
7	0	0	0	0	522	518	3	0	40	19	
8	0	0	0	0	526	519	3	0	40	19	
9	0	0	0	0	524	517	2	0	40	19	
10	0	0	0	0	519	517	2	1018	40	19	
11	0	0	0	0	517	515	1	1018	40	19	
12	0	0	0	0	517	512	3	1019	40	19	
13	0	0	0	0	516	512	1	1018	40	19	
14	0	0	0	0	515	511	3	1018	40	19	
15	0	0	0	0	512	508	2	1018	40	19	
0	0	0	0	0	507	507	1	1018	40	19	
1	0	0	0	0	504	503	1	1019	40	19	
2	0	0	0	0	503	500	1	0	40	19	
3	0	0	0	0	501	499	0	0	40	19	
4	0	0	0	0	505	500	1	0	40	19	
5	0	0	0	0	515	507	0	0	40	19	
6	0	0	0	0	521	513	0	0	40	19	
7	0	0	0	0	523	516	1	0	40	19	
8	0	0	0	0	527	518	3	0	40	19	
9	0	0	0	0	526	518	3	0	40	19	
10	0	0	0	0	521	516	3	198	40	19	
11	0	0	0	0	517	515	4	1018	40	19	
12	0	0	0	0	514	514	3	1019	40	19	
13	0	0	0	0	513	512	2	1018	40	19	
14	0	0	0	0	514	512	1	1018	40	19	
15	0	0	0	0	509	511	0	1018	40	19	
0	0	0	0	0	507	508	2	1018	40	19	
1	0	0	0	0	502	507	0	1019	40	19	
2	0	0	0	0	501	504	1	1018	40	19	
3	0	0	0	0	498	500	1	0	40	19	
4	0	0	0	0	499	497	2	0	40	19	
5	0	0	0	0	505	499	1	0	40	19	
6	0	0	0	0	511	505	2	0	40	19	
7	0	0	0	0	517	512	1	0	40	19	
8	0	0	0	0	520	513	3	0	40	19	
9	0	0	0	0	520	516	2	0	40	19	
10	0	0	0	0	524	517	2	0	40	19	
11	0	0	0	0	516	516	1	1018	40	19	
12	0	0	0	0	518	516	4	1019	40	19	
13	0	0	0	0	515	512	3	1018	40	19	
14	0	0	0	0	514	512	3	1018	40	19	
15	0	0	0	0	513	512	2	1018	40	19	
0	0	0	0	0	509	510	3	1019	40	19	
1	0	0	0	0	508	507	2	1018	40	19	
2	0	0	0	0	504	505	2	1018	40	19	
3	0	0	0	0	504	504	0	1018	40	19	
4	0	0	0	0	502	498	2	0	40	19	
5	0	0	0	0	501	498	0	0	40	19	
6	0	0	0	0	508	503	0	0	40	19	
7	0	0	0	0	515	508	0	0	40	19	
8	0	0	0	0	523	515	3	0	40	19	
9	0	0	0	0	523	518	3	0	40	19	
10	0	0	0	0	523	519	3	0	40	19	
11	0	0	0	0	525	520	3	0	40	19	
12	0	0	0	0	521	519	3	1019	40	19	
13	0	0	0	0	517	515	3	1018	40	19	
14	0	0	0	0	516	514	2	1018	40	19	
15	0	0	0	0	514	513	1	1018	40	19	
0	0	0	0	0	514	511	2	1019	40	19	
1	0	0	0	0	511	509	1	1018	40	19	
2	0	0	0	0	507	508	0	1018	40	19	
3	0	0	0	0	506	503	0	1018	40	19	
4	0	0	0	0	502	500	1	1017	40	19	
5	0	0	0	0	499	498	0	0	40	19	
6	0	0	0	0	507	500	1	0	40	19	
7	0	0	0	0	514	505	0	0	40	19	
8	0	0	0	0	518	510	1	0	40	19	
9	0	0	0	0	525	514	1	0	40	19	
10	0	0	0	0	527	516	2	0	40	19	
11	0	0	0	0	521	517	3	0	40	19	
12	0	0	0	0	510	516	4	822	40	19	
13	0	0	0	0	500	511	2	1018	40	19	
14	0	0	0	0	491	509	3	1018	40	19	
15	0	0	0	0	493	512	2	1018	40	19	
0	0	0	0	0	495	513	2	1018	40	19	
1	0	0	0	0	508	509	3	1018	40	19	
2	0	0	0	0	511	507	2	1018	40	19	
3	0	0	0	0	508	506	1	1018	40	19	
4	0	0	0	0	514	502	1	1018	40	19	
5	0	0	0	0	512	497	1	0	40	19	
6	0	0	0	0	510	496	1	0	40	19	
7	0	0	0	0	516	499	1	0	40	19	
8	0	0	0	0	523	505	2	0	40	19	
9	0	0	0	0	526	512	2	0	40	19	
10	0	0	0	0	524	517	1	0	40	19	
11	0	0	0	0	525	519	1	0	40	19	
12	0	0	0	0	524	519	4	0	40	19	
13	0	0	0	0	510	517	2	1018	40	19	
14	0	0	0	0	473	516	1	1018	40	19	
15	0	0	0	0	440	515	3	1018	40	19	
0	0	0	0	0	436	516	3	1019	40	19	
1	0	0	0	0	472	513	3	1018	40	19	
2	0	0	0	0	497	510	3	1018	40	19	
3	0	0	0	0	516	509	2	1018	40	19	
4	0	0	0	0	530	506	1	1019	40	19	
5	0	0	0	0	543	502	0	0	40	19	
6	0	0	0	0	546	500	0	0	40	19	
7	0	0	0	0	548	502	0	0	40	19	
8	0	0	0	0	562	505	1	0	40	19	
9	0	0	0	0	588	510	0	0	40	19	
10	0	0	0	0	605	516	3	0	40	19	
11	0	0	0	0	593	518	3	0	40	19	
12	0	0	0	0	551	520	5	0	40	19	
13	0	0	0	0	520	518	4	0	40	19	
14	0	0	0	0	504	516	3	1018	40	19	
15	0	0	0	0	476	513	2	1018	40	19	
0	0	0	0	0	476	512	3	1019	40	19	
1	0	0	0	0	478	510	1	1018	40	19	
2	0	0	0	0	487	510	1	1018	40	19	
3	0	0	0	0	496	508	2	1018	40	19	
4	0	0	0	0	504	504	2	1018	40	19	
5	0	0	0	0	509	500	1	1018	40	19	
6	0	0	0	0	512	497	1	0	40	19	
7	0	0	0	0	507	496	1	0	40	19	
8	0	0	0	0	517	498	0	0	40	19	
9	0	0	0	0	525	503	1	0	40	19	
10	0	0	0	0	531	508	0	0	40	19	
11	0	0	0	0	526	513	0	0	40	19	
12	0	0	0	0	524	516	3	0	40	19	
13	0	0	0	0	519	517	2	0	40	19	
14	0	0	0	0	519	518	3	1018	40	19	
15	0	0	0	0	517	514	3	1018	40	19	
0	0	0	0	0	511	511	3	1019	40	19	
1	0	0	0	0	511	511	3	1018	40	19	
2	0	0	0	0	504	512	3	1018	40	19	
3	0	0	0	0	495	512	1	1018	40	19	
4	0	0	0	0	491	506	2	1019	40	19	
5	0	0	0	0	488	503	0	1018	40	19	
6	0	0	0	0	484	500	1	1018	40	19	
7	0	0	0	0	487	498	1	0	40	19	
8	0	0	0	0	495	496	2	0	40	19	
9	0	0	0	0	506	501	1	0	40	19	
10	0	0	0	0	509	508	2	0	40	19	
11	0	0	0	0	506	512	1	0	40	19	
12	0	0	0	0	521	514	3	0	40	19	
13	0	0	0	0	532	518	2	0	40	19	
14	0	0	0	0	524	518	1	0	40	19	
15	0	0	0	0	520	517	1	1018	40	19	
0	0	0	0	0	519	513	2	1019	40	19	
1	0	0	0	0	516	510	2	1018	40	19	
2	0	0	0	0	519	512	3	1018	40	19	
3	0	0	0	0	513	513	2	1018	40	19	
4	0	0	0	0	492	510	3	1019	40	19	
5	0	0	0	0	497	507	1	1018	40	19	
6	0	0	0	0	503	504	2	1018	40	19	
7	0	0	0	0	496	502	0	1017	40	19	
8	0	0	0	0	499	499	1	0	40	19	
9	0	0	0	0	499	499	0	0	40	19	
10	0	0	0	0	511	504	0	0	40	19	
11	0	0	0	0	519	511	0	0	40	19	
12	0	0	0	0	526	515	3	0	40	19	
13	0	0	0	0	526	516	1	0	40	19	
14	0	0	0	0	527	519	3	0	40	19	
15	0	0	0	0	525	519	3	0	40	19	
0	0	0	0	0	523	519	4	1019	40	19	
1	0	0	0	0	517	516	3	1018	40	19	
2	0	0	0	0	520	515	2	1018	40	19	
3	0	0	0	0	519	513	1	1018	40	19	
4	0	0	0	0	519	513	3	1019	40	19	
5	0	0	0	0	514	509	0	1018	40	19	
6	0	0	0	0	511	508	2	1018	40	19	
7	0	0	0	0	508	505	1	1018	40	19	
8	0	0	0	0	504	502	1	1017	40	19	
9	0	0	0	0	507	499	1	0	40	19	
10	0	0	0	0	498	501	2	0	40	19	
11	0	0	0	0	515	507	1	0	40	19	
12	0	0	0	0	522	512	1	0	40	19	
13	0	0	0	0	519	516	2	0	40	19	
14	0	0	0	0	513	519	1	0	40	19	
15	0	0	0	0	499	518	1	0	40	19	
0	0	0	0	0	467	519	5	1019	40	19	
1	0	0	0	0	430	515	3	1018	40	19	
2	0	0	0	0	401	512	3	1018	40	19	
3	0	0	0	0	345	513	2	1018	40	19	
4	0	0	0	0	359	513	3	1019	40	19	
5	0	0	0	0	410	510	3	1018	40	19	
6	0	0	0	0	473	509	1	1018	40	19	
7	0	0	0	0	520	505	0	1018	40	19	
8	0	0	0	0	548	502	1	1019	40	19	
9	0	0	0	0	587	500	0	0	40	19	
10	0	0	0	0	632	501	0	0	40	19	
11	0	0	0	0	647	505	1	0	40	19	
12	0	0	0	0	654	510	2	0	40	19	
13	0	0	0	0	682	515	2	0	40	19	
14	0	0	0	0	696	518	3	0	40	19	
15	0	0	0	0	664	519	3	0	40	19	
0	0	0	0	0	615	520	3	0	40	19	
1	0	0	0	0	572	517	3	1018	40	18	
2	0	0	0	0	521	514	1	1018	40	19	
3	0	0	0	0	481	512	1	1018	40	19	
4	0	0	0	0	452	511	4	1019	40	19	
5	0	0	0	0	411	510	1	1018	40	18	
6	0	0	0	0	408	509	3	1018	40	19	
7	0	0	0	0	435	508	1	1018	40	19	
8	0	0	0	0	450	505	3	1019	40	19	
9	0	0	0	0	472	499	2	1018	40	19	
10	0	0	0	0	496	498	1	0	40	19	
11	0	0	0	0	508	500	0	0	40	19	
12	0	0	0	0	515	506	1	0	40	19	
13	0	0	0	0	537	511	0	0	40	18	
14	0	0	0	0	559	517	0	0	40	19	
15	0	0	0	0	591	519	1	0	40	18	
0	0	0	0	0	591	519	3	0	40	18	
1	0	0	0	0	558	521	3	0	40	18	
2	0	0	0	0	532	517	3	1018	40	18	
3	0	0	0	0	493	513	3	1018	40	19	
4	0	0	0	0	460	512	3	1019	40	19	
5	0	0	0	0	461	512	3	1018	40	18	
6	0	0	0	0	472	512	3	1018	40	19	
7	0	0	0	0	488	510	2	1018	40	18	
8	0	0	0	0	480	507	1	1019	40	19	
9	0	0	0	0	480	502	1	1018	40	18	
10	0	0	0	0	502	501	1	73	40	19	
11	0	0	0	0	512	500	1	0	40	18	
12	0	0	0	0	532	501	2	0	40	18	
13	0	0	0	0	526	505	2	0	40	19	
14	0	0	0	0	512	509	2	0	40	18	
15	0	0	0	0	504	515	2	0	40	18	
0	0	0	0	0	481	518	2	0	40	19	
1	0	0	0	0	496	518	3	0	40	18	
2	0	0	0	0	457	518	3	1017	40	19	
3	0	0	0	0	444	516	1	1018	40	18	
4	0	0	0	0	489	514	3	1019	40	19	
5	0	0	0	0	510	512	0	1018	40	18	
6	0	0	0	0	486	512	2	1018	40	18	
7	0	0	0	0	485	512	2	1018	40	19	
8	0	0	0	0	477	508	1	1018	40	18	
9	0	0	0	0	465	506	2	1019	40	18	
10	0	0	0	0	409	505	1	1018	40	18	
11	0	0	0	0	373	503	0	0	40	18	
12	0	0	0	0	455	502	1	0	40	19	
13	0	0	0	0	578	504	0	0	40	18	
14	0	0	0	0	638	510	0	0	40	18	
15	0	0	0	0	641	515	0	0	40	18	
0	0	0	0	0	625	517	4	0	40	19	
1	0	0	0	0	625	517	2	0	40	18	
2	0	0	0	0	606	516	3	0	40	18	
3	0	0	0	0	611	515	3	1018	40	18	
4	0	0	0	0	635	511	3	1019	40	19	
5	0	0	0	0	614	510	3	1018	40	18	
6	0	0	0	0	574	510	3	1018	40	19	
7	0	0	0	0	473	510	3	1018	40	18	
8	0	0	0	0	419	505	2	1018	40	19	
9	0	0	0	0	393	502	1	1018	40	18	
10	0	0	0	0	424	500	1	1018	40	18	
11	0	0	0	0	470	497	0	1017	40	18	
12	0	0	0	0	499	494	0	0	40	18	
13	0	0	0	0	515	498	0	0	40	18	
14	0	0	0	0	536	504	0	0	40	18	
15	0	0	0	0	542	508	0	0	40	18	
0	0	0	0	0	540	514	3	0	40	19	
1	0	0	0	0	540	515	1	0	40	18	
2	0	0	0	0	524	516	3	0	40	18	
3	0	0	0	0	527	516	3	0	40	18	
4	0	0	0	0	503	516	5	1019	40	18	
5	0	0	0	0	468	511	3	1018	40	18	
6	0	0	0	0	465	511	3	1018	40	18	
7	0	0	0	0	462	512	2	1018	40	18	
8	0	0	0	0	477	511	2	1019	40	19	
9	0	0	0	0	499	508	0	1018	40	18	
10	0	0	0	0	516	506	0	1018	40	18	
11	0	0	0	0	535	502	0	1018	40	18	
12	0	0	0	0	546	498	2	0	40	19	
13	0	0	0	0	555	496	1	0	40	18	
14	0	0	0	0	543	500	1	0	40	18	
15	0	0	0	0	548	508	1	0	40	18	
0	0	0	0	0	531	511	2	0	40	18	
1	0	0	0	0	509	515	3	0	40	18	
2	0	0	0	0	490	518	1	0	40	18	
3	0	0	0	0	465	518	1	0	40	18	
4	0	0	0	0	435	518	4	1019	40	19	
5	0	0	0	0	406	514	1	1019	40	18	
6	0	0	0	0	440	511	2	1018	40	18	
7	0	0	0	0	495	513	2	1018	40	18	
8	0	0	0	0	512	511	3	1019	40	18	
9	0	0	0	0	495	508	2	1018	40	18	
10	0	0	0	0	510	506	3	1018	40	18	
11	0	0	0	0	478	503	2	1018	40	18	
12	0	0	0	0	438	500	1	1017	40	18	
13	0	0	0	0	463	497	0	0	40	18	
14	0	0	0	0	501	498	0	0	40	18	
15	0	0	0	0	531	503	0	0	40	18	
0	0	0	0	0	568	509	1	0	40	18	
1	0	0	0	0	576	513	0	0	40	18	
2	0	0	0	0	570	516	3	0	40	18	
3	0	0	0	0	578	518	3	0	40	18	
4	0	0	0	0	607	515	3	0	40	18	
5	0	0	0	0	643	515	4	1018	40	18	
6	0	0	0	0	664	514	3	1018	40	18	
7	0	0	0	0	679	513	3	1018	40	18	
8	0	0	0	0	628	514	3	1019	40	18	
9	0	0	0	0	514	511	3	1018	40	18	
10	0	0	0	0	435	507	3	1018	40	18	
11	0	0	0	0	404	506	1	1018	40	18	
12	0	0	0	0	429	502	2	1018	40	18	
13	0	0	0	0	433	500	1	1018	40	18	
14	0	0	0	0	439	497	1	0	40	18	
15	0	0	0	0	472	499	1	0	40	18	
0	0	0	0	0	478	504	1	0	40	18	
1	0	0	0	0	449	510	1	0	40	18	
2	0	0	0	0	474	515	1	0	40	18	
3	0	0	0	0	531	520	1	0	40	18	
4	0	0	0	0	556	518	4	0	40	18	
5	0	0	0	0	545	518	1	0	40	18	
6	0	0	0	0	534	516	2	1018	40	18	
7	0	0	0	0	520	513	1	1018	40	18	
8	0	0	0	0	476	513	3	1019	40	18	
9	0	0	0	0	471	513	1	1018	40	18	
10	0	0	0	0	525	511	0	1018	40	18	
11	0	0	0	0	559	510	0	1018	40	18	
12	0	0	0	0	518	508	2	1018	40	18	
13	0	0	0	0	497	506	0	1018	40	18	
14	0	0	0	0	483	504	0	0	40	18	
15	0	0	0	0	467	504	0	0	40	18	
0	0	0	0	0	477	507	2	0	40	18	
1	0	0	0	0	461	511	0	0	40	18	
2	0	0	0	0	419	516	2	0	40	18	
3	0	0	0	0	431	519	3	0	40	18	
4	0	0	0	0	436	519	2	0	40	18	
5	0	0	0	0	489	521	3	0	40	18	
6	0	0	0	0	551	521	4	1018	40	18	
7	0	0	0	0	587	518	4	1018	40	18	
8	0	0	0	0	615	517	3	1019	40	18	
9	0	0	0	0	620	515	3	1018	40	18	
10	0	0	0	0	601	513	2	1018	40	18	
11	0	0	0	0	591	511	0	1018	40	18	
12	0	0	0	0	597	508	3	1019	40	18	
13	0	0	0	0	577	503	0	1018	40	18	
14	0	0	0	0	561	500	0	1018	40	18	
15	0	0	0	0	544	498	0	0	40	18	
0	0	0	0	0	527	496	0	0	40	18	
1	0	0	0	0	467	499	1	0	40	18	
2	0	0	0	0	419	506	2	0	40	18	
3	0	0	0	0	428	512	3	0	40	18	
4	0	0	0	0	464	515	3	0	40	18	
5	0	0	0	0	502	518	3	0	40	18	
6	0	0	0	0	522	517	2	0	40	18	
7	0	0	0	0	520	516	2	1018	40	18	
8	0	0	0	0	464	512	3	1019	40	18	
9	0	0	0	0	474	513	1	1018	40	18	
10	0	0	0	0	479	513	1	1018	40	18	
11	0	0	0	0	482	514	0	1018	40	18	
12	0	0	0	0	503	513	1	1019	40	18	
13	0	0	0	0	499	509	1	1018	40	18	
14	0	0	0	0	519	506	2	1018	40	18	
15	0	0	0	0	513	505	1	0	40	18	
0	0	0	0	0	523	503	2	0	40	18	
1	0	0	0	0	510	502	2	0	40	18	
2	0	0	0	0	512	508	1	0	40	18	
3	0	0	0	0	495	513	0	0	40	18	
4	0	0	0	0	474	519	3	0	40	18	
5	0	0	0	0	458	520	1	0	40	18	
6	0	0	0	0	472	521	1	0	40	18	
7	0	0	0	0	509	522	1	854	40	18	
8	0	0	0	0	526	519	3	1018	40	18	
9	0	0	0	0	526	515	3	1018	40	18	
10	0	0	0	0	527	515	3	1018	40	18	
11	0	0	0	0	524	514	3	1018	40	18	
12	0	0	0	0	539	515	4	1019	40	18	
13	0	0	0	0	541	511	2	1018	40	18	
14	0	0	0	0	568	509	2	1018	40	18	
15	0	0	0	0	572	506	0	1018	40	18	
0	0	0	0	0	560	503	2	574	40	18	
1	0	0	0	0	585	500	0	0	40	18	
2	0	0	0	0	566	502	0	0	40	18	
3	0	0	0	0	552	508	0	0	40	18	
4	0	0	0	0	523	512	2	0	40	18	
5	0	0	0	0	509	517	3	0	40	18	
6	0	0	0	0	510	521	3	0	40	18	
7	0	0	0	0	489	521	3	0	40	18	
8	0	0	0	0	508	520	5	1019	40	18	
9	0	0	0	0	503	515	4	1018	40	18	
10	0	0	0	0	519	514	3	1018	40	18	
11	0	0	0	0	493	515	1	1018	40	18	
12	0	0	0	0	462	516	3	1018	40	18	
13	0	0	0	0	442	512	1	1018	40	18	
14	0	0	0	0	451	509	0	1018	40	18	
15	0	0	0	0	484	506	0	1018	40	18	
0	0	0	0	0	516	503	2	1019	40	18	
1	0	0	0	0	539	499	0	0	40	18	
2	0	0	0	0	537	499	1	0	40	18	
3	0	0	0	0	544	505	1	0	40	18	
4	0	0	0	0	544	508	2	0	40	18	
5	0	0	0	0	523	512	2	0	40	18	
6	0	0	0	0	513	516	3	0	40	18	
7	0	0	0	0	543	518	2	0	40	18	
8	0	0	0	0	511	517	4	0	40	18	
9	0	0	0	0	504	515	2	1018	40	18	
10	0	0	0	0	487	513	1	1018	40	18	
11	0	0	0	0	501	513	1	1018	40	18	
12	0	0	0	0	556	512	4	1019	40	18	
13	0	0	0	0	530	512	3	1019	40	18	
14	0	0	0	0	480	511	3	1018	40	18	
15	0	0	0	0	478	509	1	1018	40	18	
0	0	0	0	0	505	504	2	1019	40	18	
1	0	0	0	0	528	502	1	0	40	18	
2	0	0	0	0	536	499	0	0	40	18	
3	0	0	0	0	509	500	0	0	40	18	
4	0	0	0	0	496	505	1	0	40	18	
5	0	0	0	0	517	509	0	0	40	18	
6	0	0	0	0	513	514	3	0	40	18	
7	0	0	0	0	557	519	3	0	40	18	
8	0	0	0	0	550	519	5	0	40	18	
9	0	0	0	0	471	519	3	824	40	18	
10	0	0	0	0	459	517	4	1018	40	18	
11	0	0	0	0	453	515	3	1018	40	18	
12	0	0	0	0	464	515	3	1019	40	18	
13	0	0	0	0	482	515	2	1018	40	18	
14	0	0	0	0	491	515	0	1018	40	18	
15	0	0	0	0	511	512	0	1018	40	18	
0	0	0	0	0	509	508	2	1019	40	18	
1	0	0	0	0	514	502	0	1018	40	18	
2	0	0	0	0	516	500	1	0	40	18	
3	0	0	0	0	501	499	0	0	40	18	
4	0	0	0	0	523	500	1	0	40	18	
5	0	0	0	0	563	505	2	0	40	18	
6	0	0	0	0	536	511	2	0	40	18	
7	0	0	0	0	543	514	1	0	40	18	
8	0	0	0	0	544	517	1	0	40	18	
9	0	0	0	0	483	516	2	0	40	18	
10	0	0	0	0	514	518	2	1018	40	18	
11	0	0	0	0	522	516	2	1018	40	18	
12	0	0	0	0	482	515	4	1019	40	18	
13	0	0	0	0	481	513	2	1018	40	18	
14	0	0	0	0	531	511	3	1018	40	18	
15	0	0	0	0	527	510	2	1018	40	18	
0	0	0	0	0	510	506	2	1019	40	18	
1	0	0	0	0	530	504	2	1019	40	18	
2	0	0	0	0	532	503	0	0	40	18	
3	0	0	0	0	478	501	0	0	40	18	
4	0	0	0	0	422	500	2	0	40	18	
5	0	0	0	0	409	505	0	0	40	18	
6	0	0	0	0	423	510	0	0	40	18	
7	0	0	0	0	471	514	0	0	40	18	
8	0	0	0	0	537	516	2	0	40	18	
9	0	0	0	0	615	518	2	0	40	18	
10	0	0	0	0	543	518	3	0	40	18	
11	0	0	0	0	504	518	3	1018	40	18	
12	0	0	0	0	523	513	3	1018	40	18	
13	0	0	0	0	588	512	3	1018	40	18	
14	0	0	0	0	656	513	3	1018	40	18	
15	0	0	0	0	600	514	1	1018	40	18	
0	0	0	0	0	543	509	1	1019	40	18	
1	0	0	0	0	563	507	0	1018	40	18	
2	0	0	0	0	502	502	0	1018	40	18	
3	0	0	0	0	478	500	0	1017	40	18	
4	0	0	0	0	511	497	2	0	40	18	
5	0	0	0	0	458	498	1	0	40	18	
6	0	0	0	0	457	505	1	0	40	18	
7	0	0	0	0	524	511	2	0	40	18	
8	0	0	0	0	564	515	3	0	40	18	
9	0	0	0	0	586	519	3	0	40	18	
10	0	0	0	0	580	519	3	0	40	18	
11	0	0	0	0	570	519	2	1018	40	18	
12	0	0	0	0	521	518	4	1019	40	18	
13	0	0	0	0	491	515	1	1018	40	18	
14	0	0	0	0	495	516	1	1018	40	18	
15	0	0	0	0	456	514	2	1018	40	18	
0	0	0	0	0	442	513	3	1019	40	18	
1	0	0	0	0	454	510	2	1018	40	18	
2	0	0	0	0	447	507	2	1018	40	18	
3	0	0	0	0	444	504	2	1018	40	18	
4	0	0	0	0	499	501	1	0	40	18	
5	0	0	0	0	547	498	1	0	40	18	
6	0	0	0	0	591	502	0	0	40	18	
7	0	0	0	0	635	506	0	0	40	18	
8	0	0	0	0	594	509	3	0	40	18	
9	0	0	0	0	539	513	0	0	40	18	
10	0	0	0	0	509	515	3	0	40	18	
11	0	0	0	0	503	516	3	0	40	18	
12	0	0	0	0	509	514	5	1019	40	18	
13	0	0	0	0	502	511	3	1018	40	18	
14	0	0	0	0	464	511	3	1018	40	18	
15	0	0	0	0	483	512	2	1018	40	18	
0	0	0	0	0	515	511	3	1018	40	18	
1	0	0	0	0	494	509	1	1018	40	18	
2	0	0	0	0	447	506	0	1018	40	18	
3	0	0	0	0	463	503	0	1018	40	18	
4	0	0	0	0	514	499	2	0	40	18	
5	0	0	0	0	521	497	1	0	40	18	
6	0	0	0	0	521	499	1	0	40	18	
7	0	0	0	0	485	504	1	0	40	18	
8	0	0	0	0	481	510	2	0	40	18	
9	0	0	0	0	507	513	3	0	40	18	
10	0	0	0	0	502	515	3	0	40	18	
11	0	0	0	0	522	519	2	0	40	18	
12	0	0	0	0	512	518	3	0	40	18	
13	0	0	0	0	481	513	2	1018	40	18	
14	0	0	0	0	494	510	1	1018	40	18	
15	0	0	0	0	528	509	1	1018	40	18	
0	0	0	0	0	539	509	4	1019	40	18	
1	0	0	0	0	556	506	1	1018	40	18	
2	0	0	0	0	567	504	2	1018	40	18	
3	0	0	0	0	524	502	1	1018	40	18	
4	0	0	0	0	507	499	3	1019	40	18	
5	0	0	0	0	506	499	1	0	40	18	
6	0	0	0	0	495	496	0	0	40	18	
7	0	0	0	0	496	500	0	0	40	18	
8	0	0	0	0	517	508	1	0	40	18	
9	0	0	0	0	519	511	0	0	40	18	
10	0	0	0	0	513	518	1	0	40	18	
11	0	0	0	0	522	521	3	0	40	18	
12	0	0	0	0	509	521	4	0	40	18	
13	0	0	0	0	542	517	3	1018	40	18	
14	0	0	0	0	568	515	4	1018	40	18	
15	0	0	0	0	506	510	3	1018	40	18	
0	0	0	0	0	472	509	3	1019	40	18	
1	0	0	0	0	460	511	2	1018	40	18	
2	0	0	0	0	509	509	0	1018	40	18	
3	0	0	0	0	531	508	0	1018	40	18	
4	0	0	0	0	504	504	3	1019	40	18	
5	0	0	0	0	494	500	0	1018	40	18	
6	0	0	0	0	441	498	1	0	40	18	
7	0	0	0	0	448	498	0	0	40	18	
8	0	0	0	0	484	503	3	0	40	18	
9	0	0	0	0	503	507	2	0	40	18	
10	0	0	0	0	487	514	2	0	40	18	
11	0	0	0	0	501	518	1	0	40	18	
12	0	0	0	0	512	519	4	0	40	18	
13	0	0	0	0	468	521	2	0	40	18	
14	0	0	0	0	503	519	2	1018	40	18	
15	0	0	0	0	524	516	2	1018	40	18	
0	0	0	0	0	504	516	4	1019	40	18	
1	0	0	0	0	514	515	3	1018	40	18	
2	0	0	0	0	529	515	3	1018	40	18	
3	0	0	0	0	558	513	2	1018	40	18	
4	0	0	0	0	567	510	3	1019	40	18	
5	0	0	0	0	544	504	2	1018	40	18	
6	0	0	0	0	574	502	1	1018	40	18	
7	0	0	0	0	568	497	0	0	40	18	
8	0	0	0	0	496	499	1	0	40	18	
9	0	0	0	0	388	504	0	0	40	18	
10	0	0	0	0	304	509	0	0	40	18	
11	0	0	0	0	298	515	0	0	40	18	
12	0	0	0	0	448	518	4	0	40	18	
13	0	0	0	0	543	519	1	0	40	18	
14	0	0	0	0	643	519	3	0	40	18	
15	0	0	0	0	722	515	3	1018	40	18	
0	0	0	0	0	664	511	3	1019	40	18	
1	0	0	0	0	635	509	3	1018	40	18	
2	0	0	0	0	655	511	3	1018	40	18	
3	0	0	0	0	671	511	2	1018	40	18	
4	0	0	0	0	632	510	4	1019	40	18	
5	0	0	0	0	518	506	1	1018	40	18	
6	0	0	0	0	462	503	2	1018	40	18	
7	0	0	0	0	479	503	0	0	40	18	
8	0	0	0	0	489	501	0	0	40	18	
9	0	0	0	0	540	501	0	0	40	18	
10	0	0	0	0	529	508	0	0	40	18	
11	0	0	0	0	512	512	0	0	40	18	
12	0	0	0	0	456	517	2	0	40	18	
13	0	0	0	0	511	519	2	0	40	18	
14	0	0	0	0	559	519	2	0	40	18	
15	0	0	0	0	543	519	1	1018	40	18	
0	0	0	0	0	526	516	4	1018	40	18	
1	0	0	0	0	491	512	2	1018	40	18	
2	0	0	0	0	452	512	1	1018	40	18	
3	0	0	0	0	468	511	1	1018	40	18	
4	0	0	0	0	485	508	2	1019	40	18	
5	0	0	0	0	448	504	0	1018	40	18	
6	0	0	0	0	412	504	0	1018	40	18	
7	0	0	0	0	429	499	0	1018	40	18	
8	0	0	0	0	454	497	1	0	40	18	
9	0	0	0	0	499	495	0	0	40	18	
10	0	0	0	0	522	500	0	0	40	18	
11	0	0	0	0	503	506	0	0	40	18	
12	0	0	0	0	486	510	1	0	40	18	
13	0	0	0	0	451	516	2	0	40	18	
14	0	0	0	0	476	520	3	0	40	18	
15	0	0	0	0	472	519	3	0	40	18	
0	0	0	0	0	479	520	5	1019	40	18	
1	0	0	0	0	499	516	3	1018	40	18	
2	0	0	0	0	501	515	3	1018	40	18	
3	0	0	0	0	478	515	3	1018	40	18	
4	0	0	0	0	467	515	4	1019	40	18	
5	0	0	0	0	472	512	2	1018	40	18	
6	0	0	0	0	503	508	2	1018	40	18	
7	0	0	0	0	552	505	1	1018	40	18	
8	0	0	0	0	568	500	1	0	40	18	
9	0	0	0	0	527	499	0	0	40	18	
10	0	0	0	0	604	498	0	0	40	18	
11	0	0	0	0	653	502	0	0	40	18	
12	0	0	0	0	629	505	3	0	40	18	
13	0	0	0	0	639	512	1	0	40	18	
14	0	0	0	0	598	515	3	0	40	18	
15	0	0	0	0	494	516	3	0	40	18	
0	0	0	0	0	446	516	4	0	40	18	
1	0	0	0	0	474	514	3	1018	40	18	
2	0	0	0	0	482	512	4	1018	40	18	
3	0	0	0	0	487	510	3	1018	40	18	
4	0	0	0	0	491	512	3	1019	40	18	
5	0	0	0	0	436	510	3	1018	40	18	
6	0	0	0	0	480	508	1	1018	40	18	
7	0	0	0	0	499	506	0	1018	40	18	
8	0	0	0	0	496	500	2	1019	40	18	
9	0	0	0	0	505	497	0	0	40	18	
10	0	0	0	0	507	495	0	0	40	18	
11	0	0	0	0	502	497	0	0	40	18	
12	0	0	0	0	536	503	0	0	40	18	
13	0	0	0	0	580	509	0	0	40	18	
14	0	0	0	0	554	515	1	0	40	18	
15	0	0	0	0	510	515	1	0	40	18	
0	0	0	0	0	479	515	4	0	40	18	
1	0	0	0	0	465	514	2	912	40	18	
2	0	0	0	0	515	513	3	1018	40	18	
3	0	0	0	0	553	512	2	1018	40	18	
4	0	0	0	0	501	511	3	1019	40	18	
5	0	0	0	0	497	510	1	1018	40	18	
6	0	0	0	0	509	510	3	1018	40	18	
7	0	0	0	0	536	506	2	1018	40	18	
8	0	0	0	0	543	503	2	1019	40	18	
9	0	0	0	0	497	499	2	1018	40	18	
10	0	0	0	0	408	498	1	0	40	18	
11	0	0	0	0	424	501	1	0	40	18	
12	0	0	0	0	457	504	0	0	40	18	
13	0	0	0	0	493	508	2	0	40	18	
14	0	0	0	0	524	514	3	0	40	18	
15	0	0	0	0	530	518	3	0	40	18	
0	0	0	0	0	540	519	3	0	40	18	
1	0	0	0	0	546	520	3	0	40	18	
2	0	0	0	0	582	520	4	1018	40	18	
3	0	0	0	0	576	516	4	1018	40	18	
4	0	0	0	0	562	514	3	1018	40	18	
5	0	0	0	0	553	513	3	1018	40	18	
6	0	0	0	0	565	511	3	1018	40	18	
7	0	0	0	0	563	510	1	1018	40	18	
8	0	0	0	0	534	504	1	1019	40	18	
9	0	0	0	0	472	502	0	1018	40	18	
10	0	0	0	0	473	499	0	1018	40	18	
11	0	0	0	0	495	496	0	0	40	18	
12	0	0	0	0	480	498	0	0	40	18	
13	0	0	0	0	444	505	1	0	40	18	
14	0	0	0	0	485	510	2	0	40	18	
15	0	0	0	0	502	517	2	0	40	18	
0	0	0	0	0	490	518	3	0	40	18	
1	0	0	0	0	462	519	3	0	40	18	
2	0	0	0	0	482	519	3	0	40	18	
3	0	0	0	0	527	519	3	1018	40	18	
4	0	0	0	0	568	516	4	1019	40	18	
5	0	0	0	0	515	514	3	1018	40	18	
6	0	0	0	0	467	515	3	1018	40	18	
7	0	0	0	0	560	514	3	1018	40	18	
8	0	0	0	0	554	510	3	1019	40	18	
9	0	0	0	0	553	507	2	1018	40	18	
10	0	0	0	0	540	502	0	1018	40	18	
11	0	0	0	0	498	502	0	0	40	18	
12	0	0	0	0	506	500	1	0	40	18	
13	0	0	0	0	517	502	0	0	40	18	
14	0	0	0	0	547	508	0	0	40	18	
15	0	0	0	0	552	510	0	0	40	18	
0	0	0	0	0	486	514	3	0	40	18	
1	0	0	0	0	390	516	1	0	40	18	
2	0	0	0	0	446	516	2	0	40	18	
3	0	0	0	0	492	516	3	1001	40	18	
4	0	0	0	0	492	514	4	1019	40	18	
5	0	0	0	0	527	510	3	1018	40	18	
6	0	0	0	0	549	510	3	1018	40	18	
7	0	0	0	0	581	510	3	1018	40	18	
8	0	0	0	0	569	507	2	1019	40	18	
9	0	0	0	0	536	504	2	1018	40	18	
10	0	0	0	0	489	504	0	1018	40	18	
11	0	0	0	0	494	500	0	1018	40	18	
12	0	0	0	0	490	499	1	0	40	18	
13	0	0	0	0	454	498	0	0	40	18	
14	0	0	0	0	477	502	1	0	40	18	
15	0	0	0	0	519	509	2	0	40	18	
0	0	0	0	0	611	515	4	0	40	18	
1	0	0	0	0	653	518	3	0	40	18	
2	0	0	0	0	567	521	3	0	40	18	
3	0	0	0	0	553	522	4	0	40	18	
4	0	0	0	0	538	519	4	1019	40	18	
5	0	0	0	0	553	518	3	1018	40	18	
6	0	0	0	0	480	516	2	1018	40	18	
7	0	0	0	0	490	517	0	1018	40	18	
8	0	0	0	0	497	513	3	1018	40	18	
9	0	0	0	0	482	510	0	1018	40	18	
10	0	0	0	0	480	506	0	1018	40	18	
11	0	0	0	0	484	502	2	1018	40	18	
12	0	0	0	0	456	499	1	1018	40	18	
13	0	0	0	0	437	497	1	0	40	18	
14	0	0	0	0	471	498	1	0	40	18	
15	0	0	0	0	515	505	2	0	40	18	
0	0	0	0	0	494	510	2	0	40	18	
1	0	0	0	0	512	515	3	0	40	18	
2	0	0	0	0	518	518	3	0	40	18	
3	0	0	0	0	526	521	2	0	40	18	
4	0	0	0	0	524	519	3	0	40	18	
5	0	0	0	0	521	518	2	1019	40	18	
6	0	0	0	0	508	515	1	1018	40	18	
7	0	0	0	0	528	516	1	1018	40	18	
8	0	0	0	0	486	515	2	1019	40	18	
9	0	0	0	0	472	513	3	1019	40	18	
10	0	0	0	0	505	511	3	1018	40	18	
11	0	0	0	0	528	508	1	1018	40	18	
12	0	0	0	0	543	502	1	1019	40	18	
13	0	0	0	0	497	500	1	0	40	18	
14	0	0	0	0	493	499	1	0	40	18	
15	0	0	0	0	513	503	1	0	40	17	
0	0	0	0	0	507	509	2	0	40	18	
1	0	0	0	0	514	513	2	0	40	18	
2	0	0	0	0	520	518	3	0	40	18	
3	0	0	0	0	525	520	3	0	40	17	
4	0	0	0	0	506	521	3	0	40	18	
5	0	0	0	0	521	519	3	1018	40	17	
6	0	0	0	0	533	517	3	1018	40	17	
7	0	0	0	0	492	514	2	1018	40	17	
8	0	0	0	0	500	513	3	1018	40	17	
9	0	0	0	0	519	514	2	1018	40	17	
10	0	0	0	0	552	511	1	1018	40	17	
11	0	0	0	0	533	509	0	1018	40	17	
12	0	0	0	0	526	503	2	1019	40	17	
13	0	0	0	0	532	500	0	1018	40	17	
14	0	0	0	0	519	499	1	0	40	17	
15	0	0	0	0	517	500	1	0	40	17	
0	0	0	0	0	528	506	2	0	40	17	
1	0	0	0	0	526	512	2	0	40	17	
2	0	0	0	0	517	516	3	0	40	17	
3	0	0	0	0	533	518	3	0	40	17	
4	0	0	0	0	489	519	3	0	40	17	
5	0	0	0	0	499	520	3	0	40	17	
6	0	0	0	0	504	519	3	1018	40	17	
7	0	0	0	0	504	516	3	1018	40	17	
8	0	0	0	0	526	516	4	1019	40	17	
9	0	0	0	0	515	515	3	1018	40	17	
10	0	0	0	0	519	515	3	1018	40	17	
11	0	0	0	0	515	513	2	1018	40	17	
12	0	0	0	0	500	509	1	1019	40	17	
13	0	0	0	0	487	507	1	1018	40	17	
14	0	0	0	0	457	504	1	1018	40	17	
15	0	0	0	0	463	503	1	0	40	17	
0	0	0	0	0	531	505	1	0	40	17	
1	0	0	0	0	524	508	1	0	40	17	
2	0	0	0	0	493	515	1	0	40	17	
3	0	0	0	0	466	518	1	0	40	17	
4	0	0	0	0	435	520	3	0	40	17	
5	0	0	0	0	471	521	2	0	40	17	
6	0	0	0	0	534	520	2	0	40	17	
7	0	0	0	0	514	518	2	1018	40	17	
8	0	0	0	0	533	513	3	1018	40	17	
9	0	0	0	0	545	511	2	1018	40	17	
10	0	0	0	0	582	512	1	1018	40	17	
11	0	0	0	0	615	510	1	1018	40	17	
12	0	0	0	0	567	507	3	1018	40	17	
13	0	0	0	0	539	504	0	1019	40	17	
14	0	0	0	0	529	500	0	1018	40	17	
15	0	0	0	0	520	500	0	0	40	17	
0	0	0	0	0	512	497	1	0	40	17	
1	0	0	0	0	504	500	0	0	40	17	
2	0	0	0	0	542	505	0	0	40	17	
3	0	0	0	0	520	511	0	0	40	17	
4	0	0	0	0	501	516	2	0	40	17	
5	0	0	0	0	544	518	1	0	40	17	
6	0	0	0	0	541	516	3	0	40	17	
7	0	0	0	0	512	516	3	1018	40	17	
8	0	0	0	0	481	513	3	1019	40	17	
9	0	0	0	0	426	512	2	1018	40	17	
10	0	0	0	0	465	513	3	1018	40	17	
11	0	0	0	0	499	513	1	1018	40	17	
12	0	0	0	0	488	510	1	1019	40	17	
13	0	0	0	0	487	508	0	1018	40	17	
14	0	0	0	0	490	506	0	1018	40	17	
15	0	0	0	0	528	500	1	1018	40	17	
0	0	0	0	0	544	497	0	0	40	17	
1	0	0	0	0	528	496	1	0	40	17	
2	0	0	0	0	529	499	1	0	40	17	
3	0	0	0	0	509	507	1	0	40	17	
4	0	0	0	0	501	510	3	0	40	17	
5	0	0	0	0	496	513	3	0	40	17	
6	0	0	0	0	502	518	3	0	40	17	
7	0	0	0	0	555	518	3	0	40	17	
8	0	0	0	0	504	516	5	1019	40	17	
9	0	0	0	0	449	511	3	1018	40	17	
10	0	0	0	0	481	510	3	1018	40	17	
11	0	0	0	0	467	510	2	1018	40	17	
12	0	0	0	0	473	510	3	1018	40	17	
13	0	0	0	0	476	507	2	1018	40	17	
14	0	0	0	0	475	506	2	1018	40	17	
15	0	0	0	0	554	503	1	1018	40	17	
0	0	0	0	0	554	501	1	743	40	17	
1	0	0	0	0	450	498	1	0	40	17	
2	0	0	0	0	451	499	1	0	40	17	
3	0	0	0	0	518	504	1	0	40	17	
4	0	0	0	0	596	509	1	0	40	17	
5	0	0	0	0	625	514	2	0	40	17	
6	0	0	0	0	615	519	2	0	40	17	
7	0	0	0	0	558	521	2	0	40	17	
8	0	0	0	0	511	519	3	0	40	17	
9	0	0	0	0	489	518	3	1018	40	17	
10	0	0	0	0	480	515	2	1018	40	17	
11	0	0	0	0	489	516	1	1018	40	17	
12	0	0	0	0	497	515	4	1018	40	17	
13	0	0	0	0	510	513	1	1018	40	17	
14	0	0	0	0	540	511	1	1018	40	17	
15	0	0	0	0	524	508	0	1018	40	17	
0	0	0	0	0	522	504	1	1019	40	17	
1	0	0	0	0	533	500	0	0	40	17	
2	0	0	0	0	501	498	0	0	40	17	
3	0	0	0	0	476	503	0	0	40	17	
4	0	0	0	0	472	507	1	0	40	17	
5	0	0	0	0	464	512	0	0	40	17	
6	0	0	0	0	436	517	0	0	40	17	
7	0	0	0	0	476	519	1	0	40	17	
8	0	0	0	0	506	519	3	0	40	17	
9	0	0	0	0	540	518	2	1018	40	17	
10	0	0	0	0	531	517	2	1018	40	17	
11	0	0	0	0	540	515	2	1018	40	17	
12	0	0	0	0	558	514	3	1018	40	17	
13	0	0	0	0	543	514	1	1018	40	17	
14	0	0	0	0	545	513	3	1018	40	17	
15	0	0	0	0	544	512	2	1018	40	17	
0	0	0	0	0	528	508	3	1019	40	17	
1	0	0	0	0	541	501	1	0	40	17	
2	0	0	0	0	572	501	1	0	40	17	
3	0	0	0	0	484	502	0	0	40	17	
4	0	0	0	0	480	507	3	0	40	17	
5	0	0	0	0	515	511	2	0	40	17	
6	0	0	0	0	529	515	2	0	40	17	
7	0	0	0	0	511	519	2	0	40	17	
8	0	0	0	0	510	520	4	0	40	17	
9	0	0	0	0	479	518	4	0	40	17	
10	0	0	0	0	503	517	4	1018	40	17	
11	0	0	0	0	491	515	4	1018	40	17	
12	0	0	0	0	524	514	4	1019	40	17	
13	0	0	0	0	520	512	3	1018	40	17	
14	0	0	0	0	490	511	3	1018	40	17	
15	0	0	0	0	487	508	2	1018	40	17	
0	0	0	0	0	487	505	2	1019	40	17	
1	0	0	0	0	504	499	2	1019	40	17	
2	0	0	0	0	476	497	1	475	40	17	
3	0	0	0	0	495	498	0	0	40	17	
4	0	0	0	0	512	500	2	0	40	17	
5	0	0	0	0	472	507	1	0	40	17	
6	0	0	0	0	497	512	1	0	40	17	
7	0	0	0	0	492	517	1	0	40	17	
8	0	0	0	0	512	518	2	0	40	17	
9	0	0	0	0	566	519	2	0	40	17	
10	0	0	0	0	551	520	2	1018	40	17	
11	0	0	0	0	537	518	2	1018	40	17	
12	0	0	0	0	536	516	4	1019	40	17	
13	0	0	0	0	523	515	1	1018	40	17	
14	0	0	0	0	549	514	1	1018	40	17	
15	0	0	0	0	514	509	0	1018	40	17	
0	0	0	0	0	493	505	2	1018	40	17	
1	0	0	0	0	519	504	0	1018	40	17	
2	0	0	0	0	568	500	0	1018	40	17	
3	0	0	0	0	532	500	0	0	40	17	
4	0	0	0	0	467	498	1	0	40	17	
5	0	0	0	0	500	503	0	0	40	17	
6	0	0	0	0	531	510	2	0	40	17	
7	0	0	0	0	526	515	2	0	40	17	
8	0	0	0	0	547	520	4	0	40	17	
9	0	0	0	0	524	522	3	0	40	17	
10	0	0	0	0	488	522	3	0	40	17	
11	0	0	0	0	520	519	3	1018	40	17	
12	0	0	0	0	556	515	3	1018	40	17	
13	0	0	0	0	583	514	3	1018	40	17	
14	0	0	0	0	516	514	3	1018	40	17	
15	0	0	0	0	491	512	2	1018	40	17	
0	0	0	0	0	503	511	3	1019	40	17	
1	0	0	0	0	492	508	2	1018	40	17	
2	0	0	0	0	486	506	1	1018	40	17	
3	0	0	0	0	474	504	1	1018	40	17	
4	0	0	0	0	465	503	2	0	40	17	
5	0	0	0	0	479	502	1	0	40	17	
6	0	0	0	0	486	505	1	0	40	17	
7	0	0	0	0	492	511	2	0	40	17	
8	0	0	0	0	505	515	3	0	40	17	
9	0	0	0	0	499	519	2	0	40	17	
10	0	0	0	0	499	519	1	0	40	17	
11	0	0	0	0	510	516	1	0	40	17	
12	0	0	0	0	521	513	5	1019	40	17	
13	0	0	0	0	515	511	1	1018	40	17	
14	0	0	0	0	516	511	1	1018	40	17	
15	0	0	0	0	507	511	1	1018	40	17	
0	0	0	0	0	511	511	3	1019	40	17	
1	0	0	0	0	538	506	0	1018	40	17	
2	0	0	0	0	522	504	2	1018	40	17	
3	0	0	0	0	479	500	1	1018	40	17	
4	0	0	0	0	521	498	2	0	40	17	
5	0	0	0	0	539	497	1	0	40	17	
6	0	0	0	0	537	500	1	0	40	17	
7	0	0	0	0	553	506	1	0	40	17	
8	0	0	0	0	527	512	2	0	40	17	
9	0	0	0	0	539	514	1	0	40	17	
10	0	0	0	0	514	518	2	0	40	17	
11	0	0	0	0	550	519	1	0	40	17	
12	0	0	0	0	505	516	3	707	40	17	
13	0	0	0	0	479	515	2	1018	40	17	
14	0	0	0	0	485	513	1	1018	40	17	
15	0	0	0	0	526	514	3	1018	40	17	
0	0	0	0	0	532	514	2	1018	40	17	
1	0	0	0	0	468	512	3	1018	40	17	
2	0	0	0	0	487	510	2	1018	40	17	
3	0	0	0	0	509	508	1	1018	40	17	
4	0	0	0	0	523	503	3	1019	40	17	
5	0	0	0	0	504	498	1	0	40	17	
6	0	0	0	0	509	497	0	0	40	17	
7	0	0	0	0	534	501	0	0	40	17	
8	0	0	0	0	520	506	1	0	40	17	
9	0	0	0	0	486	511	1	0	40	17	
10	0	0	0	0	509	517	1	0	40	17	
11	0	0	0	0	526	519	2	0	40	17	
12	0	0	0	0	480	516	4	0	40	17	
13	0	0	0	0	468	516	2	1018	40	17	
14	0	0	0	0	492	513	3	1018	40	17	
15	0	0	0	0	496	515	3	1018	40	17	
0	0	0	0	0	505	512	2	1018	40	17	
1	0	0	0	0	552	512	3	1018	40	17	
2	0	0	0	0	572	509	2	1018	40	17	
3	0	0	0	0	534	507	1	1018	40	17	
4	0	0	0	0	554	503	1	1019	40	17	
5	0	0	0	0	553	499	0	1018	40	17	
6	0	0	0	0	498	496	0	0	40	17	
7	0	0	0	0	495	499	0	0	40	17	
8	0	0	0	0	470	504	1	0	40	17	
9	0	0	0	0	454	508	0	0	40	17	
10	0	0	0	0	498	511	1	0	40	17	
11	0	0	0	0	515	514	1	0	40	17	
12	0	0	0	0	531	517	5	0	40	17	
13	0	0	0	0	512	518	1	755	40	17	
14	0	0	0	0	478	516	2	1018	40	17	
15	0	0	0	0	529	514	2	1018	40	17	
0	0	0	0	0	571	512	4	1019	40	17	
1	0	0	0	0	584	512	1	1018	40	17	
2	0	0	0	0	559	510	1	1018	40	17	
3	0	0	0	0	538	510	2	1018	40	17	
4	0	0	0	0	566	504	0	1019	40	17	
5	0	0	0	0	532	502	0	1018	40	17	
6	0	0	0	0	499	500	1	0	40	17	
7	0	0	0	0	412	499	1	0	40	17	
8	0	0	0	0	514	500	2	0	40	17	
