# OpenSignals Text File Format. Version 1
# {"0C:43:14:1C:2A:02": {"position": 0, "device": "bitalino_rev", "device name": "0C:43:14:1C:2A:02", "device connection": "BTH0C:43:14:1C:2A:02", "sampling rate": 1000, "resolution": [4, 1, 1, 1, 1, 10, 10, 10, 10, 6, 6], "firmware version": 1282, "comments": "", "keywords": "", "mode": 0, "sync interval": 2, "date": "2026-4-17", "time": "12:19:18.954", "channels": [1, 2, 3, 4, 5, 6], "sensor": ["RAW", "RAW", "RAW", "RAW", "RAW", "RAW"], "label": ["A1", "A2", "A3", "A4", "A5", "A6"], "column": ["nSeq", "I1", "I2", "O1", "O2", "A1", "A2", "A3", "A4", "A5", "A6"], "special": [{}, {}, {}, {}, {}, {}], "digital IO": [0, 0, 1, 1]}}
# EndOfHeader
0	0	0	0	0	519	503	0	0	40	24	
1	0	0	0	0	506	506	0	0	40	24	
2	0	0	0	0	502	508	0	0	40	24	
3	0	0	0	0	496	512	0	504	40	24	
4	0	0	0	0	496	514	1	1018	40	24	
5	0	0	0	0	500	515	1	1018	40	24	
6	0	0	0	0	507	515	1	1018	40	24	
7	0	0	0	0	515	515	0	1018	40	24	
8	0	0	0	0	517	514	2	1019	40	24	
9	0	0	0	0	512	512	0	1018	40	24	
10	0	0	0	0	511	514	1	1018	40	24	
11	0	0	0	0	514	515	1	1018	40	24	
12	0	0	0	0	519	512	3	1019	40	24	
13	0	0	0	0	521	508	1	1018	40	24	
14	0	0	0	0	525	507	0	814	40	24	
15	0	0	0	0	528	503	0	422	40	24	
0	0	0	0	0	526	505	4	91	40	24	
1	0	0	0	0	515	506	0	0	40	24	
2	0	0	0	0	503	508	0	0	40	24	
3	0	0	0	0	499	513	0	0	40	24	
4	0	0	0	0	499	517	1	284	40	24	
5	0	0	0	0	498	518	1	847	40	24	
6	0	0	0	0	501	519	3	1018	40	24	
7	0	0	0	0	508	518	2	1018	40	24	
8	0	0	0	0	512	517	4	1019	40	24	
9	0	0	0	0	514	514	2	1018	40	24	
10	0	0	0	0	509	513	3	1018	40	24	
11	0	0	0	0	511	513	3	1018	40	24	
12	0	0	0	0	516	512	3	1018	40	24	
13	0	0	0	0	521	510	3	647	40	24	
14	0	0	0	0	526	507	1	363	40	24	
15	0	0	0	0	528	507	1	89	40	24	
0	0	0	0	0	529	504	2	0	40	24	
1	0	0	0	0	526	504	1	0	40	24	
2	0	0	0	0	513	505	0	0	40	24	
3	0	0	0	0	502	510	0	0	40	24	
4	0	0	0	0	498	512	2	0	40	24	
5	0	0	0	0	497	514	0	994	40	24	
6	0	0	0	0	497	516	1	1018	40	24	
7	0	0	0	0	503	516	0	1018	40	24	
8	0	0	0	0	510	514	4	1019	40	24	
9	0	0	0	0	515	512	1	1018	40	24	
10	0	0	0	0	515	512	2	1019	40	24	
11	0	0	0	0	513	511	2	1018	40	24	
12	0	0	0	0	516	509	3	1019	40	24	
13	0	0	0	0	517	507	1	1018	40	24	
14	0	0	0	0	519	504	3	1018	40	24	
15	0	0	0	0	526	501	1	721	40	24	
0	0	0	0	0	527	501	3	233	40	24	
1	0	0	0	0	527	500	0	0	40	24	
2	0	0	0	0	518	502	0	0	40	24	
3	0	0	0	0	506	507	0	0	40	24	
4	0	0	0	0	503	508	1	0	40	24	
5	0	0	0	0	498	511	1	0	40	24	
6	0	0	0	0	498	515	1	874	40	24	
7	0	0	0	0	501	517	1	1018	40	24	
8	0	0	0	0	505	515	3	1019	40	24	
9	0	0	0	0	510	513	1	1019	40	24	
10	0	0	0	0	513	510	3	1018	40	24	
11	0	0	0	0	513	512	2	1018	40	24	
12	0	0	0	0	512	512	3	1019	40	24	
13	0	0	0	0	514	509	3	1018	40	24	
14	0	0	0	0	520	508	3	1018	40	24	
15	0	0	0	0	523	508	2	845	40	24	
0	0	0	0	0	529	503	1	449	40	24	
1	0	0	0	0	528	501	2	83	40	24	
2	0	0	0	0	528	502	2	0	40	24	
3	0	0	0	0	516	506	2	0	40	24	
4	0	0	0	0	504	508	3	0	40	24	
5	0	0	0	0	500	510	2	0	40	24	
6	0	0	0	0	497	512	3	627	40	24	
7	0	0	0	0	499	515	3	1018	40	24	
8	0	0	0	0	505	514	3	1019	40	24	
9	0	0	0	0	508	511	3	1019	40	24	
10	0	0	0	0	516	511	2	1018	40	24	
11	0	0	0	0	515	510	2	1018	40	24	
12	0	0	0	0	511	510	3	1019	40	24	
13	0	0	0	0	513	511	3	1018	40	24	
14	0	0	0	0	515	508	3	1018	40	24	
15	0	0	0	0	519	508	2	1017	40	24	
0	0	0	0	0	526	506	2	693	40	24	
1	0	0	0	0	527	505	2	187	40	24	
2	0	0	0	0	531	502	1	0	40	24	
3	0	0	0	0	524	502	0	0	40	24	
4	0	0	0	0	512	505	2	0	40	24	
5	0	0	0	0	502	508	1	0	40	24	
6	0	0	0	0	497	510	0	0	40	24	
7	0	0	0	0	498	512	1	323	40	24	
8	0	0	0	0	498	515	3	966	40	24	
9	0	0	0	0	502	515	2	1018	40	24	
10	0	0	0	0	511	514	3	1018	40	24	
11	0	0	0	0	516	512	2	1017	40	24	
12	0	0	0	0	512	512	3	1018	40	24	
13	0	0	0	0	510	511	2	1018	40	24	
14	0	0	0	0	515	511	2	1018	40	24	
15	0	0	0	0	517	509	2	696	40	24	
0	0	0	0	0	519	509	3	366	40	24	
1	0	0	0	0	528	506	1	4	40	24	
2	0	0	0	0	527	503	1	0	40	24	
3	0	0	0	0	527	504	0	0	40	24	
4	0	0	0	0	521	505	3	0	40	24	
5	0	0	0	0	507	507	1	0	40	24	
6	0	0	0	0	501	511	0	0	40	24	
7	0	0	0	0	495	514	0	0	40	24	
8	0	0	0	0	495	518	3	460	40	24	
9	0	0	0	0	501	515	1	1018	40	24	
10	0	0	0	0	508	516	3	1018	40	24	
11	0	0	0	0	512	513	2	1018	40	24	
12	0	0	0	0	516	512	3	1019	40	24	
13	0	0	0	0	511	513	3	1018	40	24	
14	0	0	0	0	512	513	3	1018	40	24	
15	0	0	0	0	515	511	3	1017	40	24	
0	0	0	0	0	518	510	2	504	40	24	
1	0	0	0	0	523	506	3	143	40	24	
2	0	0	0	0	529	505	1	0	40	24	
3	0	0	0	0	530	503	1	0	40	24	
4	0	0	0	0	528	502	2	0	40	24	
5	0	0	0	0	516	503	1	0	40	24	
6	0	0	0	0	503	509	0	0	40	24	
7	0	0	0	0	498	511	0	0	40	24	
8	0	0	0	0	496	512	2	353	40	24	
9	0	0	0	0	497	515	0	1018	40	24	
10	0	0	0	0	503	515	1	1018	40	24	
11	0	0	0	0	507	515	2	1018	40	24	
12	0	0	0	0	514	515	3	1019	40	24	
13	0	0	0	0	515	512	2	1018	40	24	
14	0	0	0	0	511	512	2	1018	40	24	
15	0	0	0	0	515	513	2	1018	40	24	
0	0	0	0	0	515	513	3	1019	40	24	
1	0	0	0	0	519	511	2	816	40	24	
2	0	0	0	0	524	508	2	398	40	24	
3	0	0	0	0	528	507	1	2	40	24	
4	0	0	0	0	530	504	1	0	40	24	
5	0	0	0	0	522	503	1	0	40	24	
6	0	0	0	0	512	507	0	0	40	24	
7	0	0	0	0	502	510	0	0	40	24	
8	0	0	0	0	498	512	1	0	40	24	
9	0	0	0	0	497	515	0	384	40	24	
10	0	0	0	0	500	514	1	1018	40	24	
11	0	0	0	0	504	515	0	1018	40	24	
12	0	0	0	0	508	513	1	1018	40	24	
13	0	0	0	0	514	511	3	1018	40	24	
14	0	0	0	0	511	511	3	1018	40	24	
15	0	0	0	0	508	510	2	1018	40	24	
0	0	0	0	0	513	510	1	1017	40	24	
1	0	0	0	0	518	510	2	1018	40	24	
2	0	0	0	0	523	508	3	657	40	24	
3	0	0	0	0	528	505	2	223	40	24	
4	0	0	0	0	529	504	2	0	40	24	
5	0	0	0	0	528	501	1	0	40	24	
6	0	0	0	0	523	505	1	0	40	24	
7	0	0	0	0	508	507	0	0	40	24	
8	0	0	0	0	500	511	3	0	40	24	
9	0	0	0	0	494	511	0	0	40	24	
10	0	0	0	0	495	516	0	284	40	24	
11	0	0	0	0	501	517	1	1017	40	24	
12	0	0	0	0	505	516	1	1017	40	24	
13	0	0	0	0	511	515	3	1018	40	24	
14	0	0	0	0	515	514	2	1018	40	24	
15	0	0	0	0	513	516	1	1017	40	24	
0	0	0	0	0	513	517	4	1019	40	24	
1	0	0	0	0	515	512	2	1018	40	24	
2	0	0	0	0	520	511	3	744	40	24	
3	0	0	0	0	524	508	2	363	40	24	
4	0	0	0	0	529	504	2	0	40	24	
5	0	0	0	0	531	502	1	0	40	24	
6	0	0	0	0	527	499	1	0	40	24	
7	0	0	0	0	515	504	1	0	40	24	
8	0	0	0	0	503	508	2	0	40	24	
9	0	0	0	0	497	509	1	0	40	24	
10	0	0	0	0	495	513	0	0	40	24	
11	0	0	0	0	497	515	1	580	40	24	
12	0	0	0	0	500	515	4	1019	40	24	
13	0	0	0	0	504	514	2	1018	40	24	
14	0	0	0	0	512	512	3	1018	40	24	
15	0	0	0	0	515	511	2	1017	40	24	
0	0	0	0	0	512	513	4	805	40	24	
1	0	0	0	0	513	512	3	606	40	24	
2	0	0	0	0	517	511	2	372	40	24	
3	0	0	0	0	521	509	1	88	40	24	
4	0	0	0	0	527	507	2	0	40	24	
5	0	0	0	0	529	504	1	0	40	24	
6	0	0	0	0	528	504	0	0	40	24	
7	0	0	0	0	525	505	0	0	40	24	
8	0	0	0	0	512	507	3	0	40	24	
9	0	0	0	0	503	510	0	0	40	24	
10	0	0	0	0	498	512	3	0	40	24	
11	0	0	0	0	497	514	2	0	40	24	
12	0	0	0	0	499	513	2	732	40	24	
13	0	0	0	0	503	513	3	1018	40	24	
14	0	0	0	0	510	514	3	1018	40	24	
15	0	0	0	0	515	513	3	1017	40	24	
0	0	0	0	0	513	512	3	1018	40	24	
1	0	0	0	0	511	512	3	1018	40	24	
2	0	0	0	0	516	511	1	623	40	24	
3	0	0	0	0	517	511	1	306	40	24	
4	0	0	0	0	522	509	3	0	40	24	
5	0	0	0	0	527	508	0	0	40	24	
6	0	0	0	0	529	505	0	0	40	24	
7	0	0	0	0	529	503	1	0	40	24	
8	0	0	0	0	519	504	1	0	40	24	
9	0	0	0	0	508	507	3	0	40	24	
10	0	0	0	0	498	509	2	0	40	24	
11	0	0	0	0	495	512	2	0	40	24	
12	0	0	0	0	498	514	3	0	40	24	
13	0	0	0	0	500	513	3	768	40	24	
14	0	0	0	0	505	513	3	1018	40	24	
15	0	0	0	0	512	512	1	1018	40	24	
0	0	0	0	0	518	510	3	1018	40	24	
1	0	0	0	0	513	510	1	1018	40	24	
2	0	0	0	0	510	511	1	686	40	24	
3	0	0	0	0	515	510	0	480	40	24	
4	0	0	0	0	521	509	3	256	40	24	
5	0	0	0	0	524	505	1	0	40	24	
6	0	0	0	0	529	503	2	0	40	24	
7	0	0	0	0	530	503	2	0	40	24	
8	0	0	0	0	526	501	3	0	40	24	
9	0	0	0	0	514	502	2	0	40	24	
10	0	0	0	0	504	505	2	0	40	24	
11	0	0	0	0	497	509	1	0	40	24	
12	0	0	0	0	496	512	1	0	40	24	
13	0	0	0	0	495	515	3	376	40	24	
14	0	0	0	0	502	517	2	1018	40	24	
15	0	0	0	0	505	516	2	1018	40	24	
0	0	0	0	0	513	515	1	1018	40	24	
1	0	0	0	0	515	512	1	1018	40	24	
2	0	0	0	0	511	513	0	1018	40	24	
3	0	0	0	0	511	513	0	1018	40	24	
4	0	0	0	0	515	512	3	1018	40	24	
5	0	0	0	0	520	510	0	573	40	24	
6	0	0	0	0	527	507	2	216	40	24	
7	0	0	0	0	528	505	2	0	40	24	
8	0	0	0	0	530	500	1	0	40	24	
9	0	0	0	0	526	503	2	0	40	24	
10	0	0	0	0	513	505	2	0	40	24	
11	0	0	0	0	504	507	1	0	40	24	
12	0	0	0	0	496	511	2	0	40	24	
13	0	0	0	0	496	513	1	225	40	24	
14	0	0	0	0	496	513	0	1018	40	24	
15	0	0	0	0	503	513	0	1018	40	24	
0	0	0	0	0	509	510	1	1019	40	24	
1	0	0	0	0	515	508	1	1018	40	24	
2	0	0	0	0	516	511	3	1018	40	24	
3	0	0	0	0	511	513	2	1018	40	24	
4	0	0	0	0	512	513	4	1019	40	24	
5	0	0	0	0	517	512	2	806	40	24	
6	0	0	0	0	520	510	2	434	40	24	
7	0	0	0	0	528	508	2	53	40	24	
8	0	0	0	0	528	506	3	0	40	24	
9	0	0	0	0	529	502	2	0	40	24	
10	0	0	0	0	520	505	2	0	40	24	
11	0	0	0	0	505	510	1	0	40	24	
12	0	0	0	0	502	511	3	0	40	24	
13	0	0	0	0	496	512	1	0	40	24	
14	0	0	0	0	499	515	0	340	40	24	
15	0	0	0	0	502	517	0	1017	40	24	
0	0	0	0	0	506	516	2	1018	40	24	
1	0	0	0	0	510	515	0	1018	40	24	
2	0	0	0	0	513	513	1	1018	40	24	
3	0	0	0	0	512	512	2	1018	40	24	
4	0	0	0	0	511	511	2	1017	40	24	
5	0	0	0	0	515	511	3	1018	40	24	
6	0	0	0	0	517	511	3	711	40	24	
7	0	0	0	0	522	508	2	379	40	24	
8	0	0	0	0	527	505	3	40	40	24	
9	0	0	0	0	526	501	2	0	40	24	
10	0	0	0	0	530	502	3	0	40	24	
11	0	0	0	0	516	504	2	0	40	24	
12	0	0	0	0	504	508	2	0	40	24	
13	0	0	0	0	497	511	2	0	40	24	
14	0	0	0	0	499	512	1	0	40	24	
15	0	0	0	0	499	516	1	818	40	24	
0	0	0	0	0	501	516	3	1018	40	24	
1	0	0	0	0	507	514	1	1018	40	24	
2	0	0	0	0	514	514	0	1018	40	24	
3	0	0	0	0	517	512	0	1018	40	24	
4	0	0	0	0	513	513	3	1018	40	24	
5	0	0	0	0	513	514	1	1018	40	24	
6	0	0	0	0	518	514	3	803	40	24	
7	0	0	0	0	521	512	2	439	40	24	
8	0	0	0	0	526	509	2	71	40	24	
9	0	0	0	0	529	505	2	0	40	24	
10	0	0	0	0	529	503	2	0	40	24	
11	0	0	0	0	525	504	2	0	40	24	
12	0	0	0	0	513	507	1	0	40	24	
13	0	0	0	0	501	511	2	0	40	24	
14	0	0	0	0	496	514	1	0	40	24	
15	0	0	0	0	493	517	0	0	40	24	
0	0	0	0	0	495	517	1	597	40	24	
1	0	0	0	0	503	517	0	1018	40	24	
2	0	0	0	0	512	515	0	1018	40	24	
3	0	0	0	0	516	514	0	1018	40	24	
4	0	0	0	0	513	512	1	1019	40	24	
5	0	0	0	0	511	513	1	1018	40	24	
6	0	0	0	0	515	513	2	847	40	24	
7	0	0	0	0	516	513	2	641	40	24	
8	0	0	0	0	522	508	1	355	40	24	
9	0	0	0	0	528	505	2	21	40	24	
10	0	0	0	0	530	504	2	0	40	24	
11	0	0	0	0	528	504	2	0	40	24	
12	0	0	0	0	519	505	3	0	40	24	
13	0	0	0	0	507	506	3	0	40	24	
14	0	0	0	0	500	509	1	0	40	24	
15	0	0	0	0	496	513	1	0	40	24	
0	0	0	0	0	495	516	2	777	40	24	
1	0	0	0	0	501	514	1	1018	40	24	
2	0	0	0	0	505	514	0	1018	40	24	
3	0	0	0	0	511	515	0	1018	40	24	
4	0	0	0	0	515	513	3	1019	40	24	
5	0	0	0	0	513	512	0	1018	40	24	
6	0	0	0	0	511	512	3	1018	40	24	
7	0	0	0	0	515	513	2	1017	40	24	
8	0	0	0	0	519	509	2	775	40	24	
9	0	0	0	0	521	506	2	422	40	24	
10	0	0	0	0	531	504	2	31	40	24	
11	0	0	0	0	530	502	2	0	40	24	
12	0	0	0	0	529	502	2	0	40	24	
13	0	0	0	0	516	504	1	0	40	24	
14	0	0	0	0	502	506	1	0	40	24	
15	0	0	0	0	498	510	0	0	40	24	
0	0	0	0	0	495	513	3	0	40	24	
1	0	0	0	0	494	515	1	812	40	24	
2	0	0	0	0	504	515	3	1018	40	24	
3	0	0	0	0	508	513	2	1018	40	24	
4	0	0	0	0	512	513	3	1019	40	24	
5	0	0	0	0	511	510	2	1018	40	24	
6	0	0	0	0	510	512	3	1018	40	24	
7	0	0	0	0	513	515	3	1018	40	24	
8	0	0	0	0	516	511	3	1018	40	24	
9	0	0	0	0	520	510	2	608	40	24	
10	0	0	0	0	527	508	1	221	40	24	
11	0	0	0	0	531	508	0	0	40	24	
12	0	0	0	0	529	504	3	0	40	24	
13	0	0	0	0	519	505	0	0	40	24	
14	0	0	0	0	511	510	0	0	40	24	
15	0	0	0	0	502	512	0	0	40	24	
0	0	0	0	0	495	517	3	0	40	24	
1	0	0	0	0	496	518	2	0	40	24	
2	0	0	0	0	497	516	2	946	40	24	
3	0	0	0	0	504	516	2	1018	40	24	
4	0	0	0	0	511	515	3	1019	40	24	
5	0	0	0	0	515	511	3	1018	40	24	
6	0	0	0	0	513	513	2	1018	40	24	
7	0	0	0	0	511	513	1	1018	40	24	
8	0	0	0	0	514	512	3	1018	40	24	
9	0	0	0	0	519	510	1	611	40	24	
10	0	0	0	0	523	508	0	260	40	24	
11	0	0	0	0	527	506	0	0	40	24	
12	0	0	0	0	530	506	3	0	40	24	
13	0	0	0	0	528	504	0	0	40	24	
14	0	0	0	0	519	504	2	0	40	24	
15	0	0	0	0	508	507	2	0	40	24	
0	0	0	0	0	502	508	2	0	40	24	
1	0	0	0	0	495	512	2	0	40	24	
2	0	0	0	0	498	515	2	418	40	24	
3	0	0	0	0	502	515	3	1018	40	24	
4	0	0	0	0	507	513	3	1018	40	24	
5	0	0	0	0	512	515	3	1018	40	24	
6	0	0	0	0	515	512	1	1018	40	24	
7	0	0	0	0	515	512	0	1018	40	24	
8	0	0	0	0	512	511	3	1019	40	24	
9	0	0	0	0	514	511	1	1018	40	24	
10	0	0	0	0	520	509	0	1018	40	24	
11	0	0	0	0	523	507	0	522	40	24	
12	0	0	0	0	528	505	2	109	40	24	
13	0	0	0	0	531	502	1	0	40	24	
14	0	0	0	0	527	503	2	0	40	24	
15	0	0	0	0	516	506	2	0	40	24	
0	0	0	0	0	503	508	2	0	40	24	
1	0	0	0	0	496	510	1	0	40	24	
2	0	0	0	0	495	514	1	0	40	24	
3	0	0	0	0	496	515	1	844	40	24	
4	0	0	0	0	502	515	4	1019	40	24	
5	0	0	0	0	506	514	1	1018	40	24	
6	0	0	0	0	512	511	3	1018	40	24	
7	0	0	0	0	515	510	2	1018	40	24	
8	0	0	0	0	513	511	4	1019	40	24	
9	0	0	0	0	511	510	1	1018	40	24	
10	0	0	0	0	515	510	1	685	40	24	
11	0	0	0	0	521	508	0	312	40	24	
12	0	0	0	0	526	508	3	0	40	24	
13	0	0	0	0	530	505	1	0	40	24	
14	0	0	0	0	529	504	2	0	40	24	
15	0	0	0	0	525	504	2	0	40	24	
0	0	0	0	0	511	507	3	0	40	24	
1	0	0	0	0	504	512	3	0	40	24	
2	0	0	0	0	496	514	3	0	40	24	
3	0	0	0	0	494	515	2	0	40	24	
4	0	0	0	0	497	517	4	404	40	24	
5	0	0	0	0	504	517	3	984	40	24	
6	0	0	0	0	511	516	2	1018	40	24	
7	0	0	0	0	513	513	2	1018	40	24	
8	0	0	0	0	512	512	4	1019	40	24	
9	0	0	0	0	511	512	2	860	40	24	
10	0	0	0	0	512	512	2	701	40	24	
11	0	0	0	0	517	510	2	456	40	24	
12	0	0	0	0	525	511	1	152	40	24	
13	0	0	0	0	529	509	2	0	40	24	
14	0	0	0	0	530	508	2	0	40	24	
15	0	0	0	0	530	506	1	0	40	24	
0	0	0	0	0	520	505	1	0	40	24	
1	0	0	0	0	505	508	2	0	40	24	
2	0	0	0	0	499	511	2	0	40	24	
3	0	0	0	0	493	513	2	0	40	24	
4	0	0	0	0	495	518	3	244	40	24	
5	0	0	0	0	499	519	3	1017	40	24	
6	0	0	0	0	504	519	3	1018	40	24	
7	0	0	0	0	511	516	2	1018	40	24	
8	0	0	0	0	514	514	2	1018	40	24	
9	0	0	0	0	511	515	2	1018	40	24	
10	0	0	0	0	513	515	3	1018	40	24	
11	0	0	0	0	514	513	2	1017	40	24	
12	0	0	0	0	519	512	2	742	40	24	
13	0	0	0	0	522	509	1	354	40	24	
14	0	0	0	0	530	508	0	0	40	24	
15	0	0	0	0	530	505	0	0	40	24	
0	0	0	0	0	529	505	3	0	40	24	
1	0	0	0	0	516	506	0	0	40	24	
2	0	0	0	0	504	507	0	0	40	24	
3	0	0	0	0	497	511	0	0	40	24	
4	0	0	0	0	496	513	3	0	40	24	
5	0	0	0	0	494	513	3	707	40	24	
6	0	0	0	0	502	516	3	1018	40	24	
7	0	0	0	0	504	516	2	1018	40	24	
8	0	0	0	0	513	515	3	1019	40	24	
9	0	0	0	0	514	511	2	1018	40	24	
10	0	0	0	0	513	514	3	1018	40	24	
11	0	0	0	0	512	513	2	1018	40	24	
12	0	0	0	0	515	512	3	1017	40	24	
13	0	0	0	0	522	509	2	1018	40	24	
14	0	0	0	0	524	506	0	412	40	24	
15	0	0	0	0	528	504	0	0	40	24	
0	0	0	0	0	531	502	2	0	40	24	
1	0	0	0	0	523	502	0	0	40	24	
2	0	0	0	0	512	508	0	0	40	24	
3	0	0	0	0	504	511	0	0	40	24	
4	0	0	0	0	497	515	3	0	40	24	
5	0	0	0	0	496	514	3	0	40	24	
6	0	0	0	0	496	515	3	1018	40	24	
7	0	0	0	0	501	517	2	1018	40	24	
8	0	0	0	0	511	515	3	1019	40	24	
9	0	0	0	0	514	513	3	1018	40	24	
10	0	0	0	0	516	513	3	1018	40	24	
11	0	0	0	0	510	514	2	1018	40	24	
12	0	0	0	0	513	514	2	1018	40	24	
13	0	0	0	0	518	511	1	1018	40	24	
14	0	0	0	0	521	508	0	622	40	24	
15	0	0	0	0	527	506	0	189	40	24	
0	0	0	0	0	530	503	2	0	40	24	
1	0	0	0	0	529	501	2	0	40	24	
2	0	0	0	0	521	502	2	0	40	24	
3	0	0	0	0	508	506	2	0	40	24	
4	0	0	0	0	500	509	1	0	40	24	
5	0	0	0	0	495	509	3	0	40	24	
6	0	0	0	0	494	511	3	241	40	24	
7	0	0	0	0	502	512	1	909	40	24	
8	0	0	0	0	504	511	3	1018	40	24	
9	0	0	0	0	510	511	1	1018	40	24	
10	0	0	0	0	515	510	1	1018	40	24	
11	0	0	0	0	514	512	0	1018	40	24	
12	0	0	0	0	512	514	1	819	40	24	
13	0	0	0	0	514	511	1	563	40	24	
14	0	0	0	0	519	510	2	286	40	24	
15	0	0	0	0	525	508	2	0	40	24	
0	0	0	0	0	529	508	3	0	40	24	
1	0	0	0	0	530	505	2	0	40	24	
2	0	0	0	0	531	504	2	0	40	24	
3	0	0	0	0	518	505	2	0	40	24	
4	0	0	0	0	504	508	2	0	40	24	
5	0	0	0	0	495	511	3	0	40	24	
6	0	0	0	0	497	514	1	0	40	24	
7	0	0	0	0	497	517	1	415	40	24	
8	0	0	0	0	501	515	1	999	40	24	
9	0	0	0	0	508	515	1	1018	40	24	
10	0	0	0	0	514	513	0	1018	40	24	
11	0	0	0	0	513	512	0	1017	40	24	
12	0	0	0	0	512	512	4	786	40	24	
13	0	0	0	0	511	510	1	738	40	24	
14	0	0	0	0	516	508	3	608	40	24	
15	0	0	0	0	521	510	1	359	40	24	
0	0	0	0	0	528	507	3	60	40	24	
1	0	0	0	0	530	503	2	0	40	24	
2	0	0	0	0	532	502	2	0	40	24	
3	0	0	0	0	524	503	2	0	40	24	
4	0	0	0	0	511	503	2	0	40	24	
5	0	0	0	0	502	504	3	0	40	24	
6	0	0	0	0	493	509	2	0	40	24	
7	0	0	0	0	493	512	1	219	40	24	
8	0	0	0	0	498	512	3	1004	40	24	
9	0	0	0	0	504	515	1	1018	40	24	
10	0	0	0	0	509	515	1	1018	40	24	
11	0	0	0	0	511	512	0	1018	40	24	
12	0	0	0	0	511	511	2	1018	40	24	
13	0	0	0	0	508	511	0	1018	40	24	
14	0	0	0	0	512	511	0	1018	40	24	
15	0	0	0	0	518	511	0	1018	40	24	
0	0	0	0	0	524	508	3	684	40	24	
1	0	0	0	0	528	504	1	294	40	24	
2	0	0	0	0	530	502	0	0	40	24	
3	0	0	0	0	530	501	0	0	40	24	
4	0	0	0	0	523	500	2	0	40	24	
5	0	0	0	0	510	505	0	0	40	24	
6	0	0	0	0	501	509	1	0	40	24	
7	0	0	0	0	494	512	0	0	40	24	
8	0	0	0	0	496	514	3	522	40	24	
9	0	0	0	0	500	514	1	1018	40	24	
10	0	0	0	0	504	514	3	1018	40	24	
11	0	0	0	0	511	512	2	1018	40	24	
12	0	0	0	0	513	512	3	1019	40	24	
13	0	0	0	0	511	512	2	1018	40	24	
14	0	0	0	0	509	512	3	1018	40	24	
15	0	0	0	0	513	512	2	1017	40	24	
0	0	0	0	0	519	509	2	724	40	24	
1	0	0	0	0	522	507	3	336	40	24	
2	0	0	0	0	527	504	2	0	40	24	
3	0	0	0	0	531	503	1	0	40	24	
4	0	0	0	0	528	501	3	0	40	24	
5	0	0	0	0	518	505	1	0	40	24	
6	0	0	0	0	504	508	1	0	40	24	
7	0	0	0	0	498	513	0	0	40	24	
8	0	0	0	0	498	514	3	0	40	24	
9	0	0	0	0	496	515	0	526	40	24	
10	0	0	0	0	504	516	1	1018	40	24	
11	0	0	0	0	507	514	0	1018	40	24	
12	0	0	0	0	514	512	2	1018	40	24	
13	0	0	0	0	515	511	0	1018	40	24	
14	0	0	0	0	512	511	1	1018	40	24	
15	0	0	0	0	513	512	0	1018	40	24	
0	0	0	0	0	514	513	3	1018	40	24	
1	0	0	0	0	520	510	0	619	40	24	
2	0	0	0	0	526	508	0	225	40	24	
3	0	0	0	0	529	504	0	0	40	24	
4	0	0	0	0	530	500	2	0	40	24	
5	0	0	0	0	525	502	0	0	40	24	
6	0	0	0	0	513	504	1	0	40	24	
7	0	0	0	0	504	508	0	0	40	24	
8	0	0	0	0	497	511	3	0	40	24	
9	0	0	0	0	495	512	3	0	40	24	
10	0	0	0	0	496	512	3	464	40	24	
11	0	0	0	0	501	511	2	908	40	24	
12	0	0	0	0	511	510	2	1017	40	24	
13	0	0	0	0	514	511	3	1018	40	24	
14	0	0	0	0	512	510	3	839	40	24	
15	0	0	0	0	509	511	2	612	40	24	
0	0	0	0	0	513	510	1	426	40	24	
1	0	0	0	0	517	509	1	214	40	24	
2	0	0	0	0	523	509	1	0	40	24	
3	0	0	0	0	525	507	0	0	40	24	
4	0	0	0	0	530	506	2	0	40	24	
5	0	0	0	0	531	504	1	0	40	24	
6	0	0	0	0	521	505	1	0	40	24	
7	0	0	0	0	508	509	0	0	40	24	
8	0	0	0	0	502	511	1	0	40	24	
9	0	0	0	0	496	515	1	0	40	24	
10	0	0	0	0	495	519	0	0	40	24	
11	0	0	0	0	499	520	1	899	40	24	
12	0	0	0	0	504	520	3	1018	40	24	
13	0	0	0	0	511	517	1	1018	40	24	
14	0	0	0	0	516	515	1	1018	40	24	
15	0	0	0	0	513	515	0	1018	40	24	
0	0	0	0	0	510	515	3	1018	40	24	
1	0	0	0	0	516	514	1	1018	40	24	
2	0	0	0	0	521	513	0	777	40	24	
3	0	0	0	0	522	511	0	429	40	24	
4	0	0	0	0	529	508	3	57	40	24	
5	0	0	0	0	533	506	0	0	40	24	
6	0	0	0	0	528	505	0	0	40	24	
7	0	0	0	0	515	508	0	0	40	24	
8	0	0	0	0	503	510	2	0	40	24	
9	0	0	0	0	496	511	0	0	40	24	
10	0	0	0	0	498	512	0	0	40	24	
11	0	0	0	0	495	515	0	744	40	24	
12	0	0	0	0	501	513	2	1018	40	24	
13	0	0	0	0	505	512	0	1019	40	24	
14	0	0	0	0	514	512	0	1018	40	24	
15	0	0	0	0	516	512	1	1018	40	24	
0	0	0	0	0	514	513	4	1019	40	24	
1	0	0	0	0	513	512	1	1018	40	24	
2	0	0	0	0	514	511	1	1018	40	24	
3	0	0	0	0	521	509	0	1017	40	24	
4	0	0	0	0	527	504	1	506	40	24	
5	0	0	0	0	529	504	0	107	40	24	
6	0	0	0	0	529	503	2	0	40	24	
7	0	0	0	0	524	503	2	0	40	24	
8	0	0	0	0	510	505	1	0	40	24	
9	0	0	0	0	502	507	2	0	40	24	
10	0	0	0	0	494	511	3	0	40	24	
11	0	0	0	0	494	513	2	2	40	24	
12	0	0	0	0	496	516	2	878	40	24	
13	0	0	0	0	501	514	1	1018	40	24	
14	0	0	0	0	509	513	1	1018	40	24	
15	0	0	0	0	515	511	1	1018	40	24	
0	0	0	0	0	514	511	2	1019	40	24	
1	0	0	0	0	511	510	1	1018	40	24	
2	0	0	0	0	515	512	0	1018	40	24	
3	0	0	0	0	517	511	0	768	40	24	
4	0	0	0	0	519	508	3	411	40	24	
5	0	0	0	0	526	505	1	36	40	24	
6	0	0	0	0	529	503	1	0	40	24	
7	0	0	0	0	531	503	0	0	40	24	
8	0	0	0	0	523	504	2	0	40	24	
9	0	0	0	0	506	506	1	0	40	24	
10	0	0	0	0	500	508	1	0	40	24	
11	0	0	0	0	495	511	0	0	40	24	
12	0	0	0	0	496	515	2	276	40	24	
13	0	0	0	0	498	514	1	1010	40	24	
14	0	0	0	0	503	516	1	1018	40	24	
15	0	0	0	0	510	513	0	1018	40	24	
0	0	0	0	0	515	511	1	1017	40	24	
1	0	0	0	0	511	510	0	1018	40	24	
2	0	0	0	0	513	511	1	1018	40	24	
3	0	0	0	0	519	511	0	1017	40	24	
4	0	0	0	0	519	509	2	703	40	24	
5	0	0	0	0	520	507	1	352	40	24	
6	0	0	0	0	529	505	2	0	40	24	
7	0	0	0	0	529	505	2	0	40	24	
8	0	0	0	0	527	504	1	0	40	24	
9	0	0	0	0	518	506	2	0	40	24	
10	0	0	0	0	504	509	3	0	40	24	
11	0	0	0	0	498	512	2	0	40	24	
12	0	0	0	0	497	515	2	0	40	24	
13	0	0	0	0	496	515	2	872	40	24	
14	0	0	0	0	501	516	1	1018	40	24	
15	0	0	0	0	508	514	0	1018	40	24	
0	0	0	0	0	513	512	2	1018	40	24	
1	0	0	0	0	517	512	1	1018	40	24	
2	0	0	0	0	512	513	3	1018	40	24	
3	0	0	0	0	512	513	2	1018	40	24	
4	0	0	0	0	512	513	1	1018	40	24	
5	0	0	0	0	519	510	2	678	40	24	
6	0	0	0	0	522	508	2	257	40	24	
7	0	0	0	0	529	505	1	0	40	24	
8	0	0	0	0	531	504	2	0	40	24	
9	0	0	0	0	524	501	0	0	40	24	
10	0	0	0	0	514	505	0	0	40	24	
11	0	0	0	0	503	508	0	0	40	24	
12	0	0	0	0	495	513	3	0	40	24	
13	0	0	0	0	495	514	0	0	40	24	
14	0	0	0	0	497	514	3	927	40	24	
15	0	0	0	0	503	517	2	1018	40	24	
0	0	0	0	0	509	515	2	1019	40	24	
1	0	0	0	0	515	513	3	1018	40	24	
2	0	0	0	0	515	513	3	1018	40	24	
3	0	0	0	0	512	516	2	1018	40	24	
4	0	0	0	0	512	513	2	1017	40	24	
5	0	0	0	0	518	512	1	660	40	24	
6	0	0	0	0	523	512	1	300	40	24	
7	0	0	0	0	527	509	0	0	40	24	
8	0	0	0	0	529	507	3	0	40	24	
9	0	0	0	0	530	506	1	0	40	24	
10	0	0	0	0	521	507	2	0	40	24	
11	0	0	0	0	510	509	2	0	40	24	
12	0	0	0	0	498	512	2	0	40	24	
13	0	0	0	0	492	514	2	0	40	24	
14	0	0	0	0	496	516	3	297	40	24	
15	0	0	0	0	498	518	2	1017	40	24	
0	0	0	0	0	504	515	3	1019	40	24	
1	0	0	0	0	511	513	1	1018	40	24	
2	0	0	0	0	515	512	1	1018	40	24	
3	0	0	0	0	513	513	0	1018	40	24	
4	0	0	0	0	513	512	3	1017	40	24	
5	0	0	0	0	514	512	1	1018	40	24	
6	0	0	0	0	519	510	2	568	40	24	
7	0	0	0	0	524	507	2	219	40	24	
8	0	0	0	0	525	504	1	0	40	24	
9	0	0	0	0	530	504	2	0	40	24	
10	0	0	0	0	529	502	2	0	40	24	
11	0	0	0	0	515	504	0	0	40	24	
12	0	0	0	0	503	506	1	0	40	24	
13	0	0	0	0	495	511	0	0	40	24	
14	0	0	0	0	493	513	0	0	40	24	
15	0	0	0	0	496	515	1	535	40	24	
0	0	0	0	0	500	514	2	1018	40	24	
1	0	0	0	0	507	513	3	1018	40	24	
2	0	0	0	0	513	512	2	1018	40	24	
3	0	0	0	0	516	512	2	1018	40	24	
4	0	0	0	0	512	512	2	1018	40	24	
5	0	0	0	0	513	510	2	1018	40	24	
6	0	0	0	0	519	507	3	1018	40	24	
7	0	0	0	0	523	507	2	595	40	24	
8	0	0	0	0	526	504	2	212	40	24	
9	0	0	0	0	527	501	2	0	40	24	
10	0	0	0	0	530	500	1	0	40	24	
11	0	0	0	0	526	499	0	0	40	24	
12	0	0	0	0	514	504	2	0	40	24	
13	0	0	0	0	506	507	1	0	40	24	
14	0	0	0	0	497	512	0	0	40	24	
15	0	0	0	0	497	513	0	0	40	24	
0	0	0	0	0	497	514	3	975	40	24	
1	0	0	0	0	503	514	0	1018	40	24	
2	0	0	0	0	507	514	1	1018	40	24	
3	0	0	0	0	511	512	1	1018	40	24	
4	0	0	0	0	515	513	3	1019	40	24	
5	0	0	0	0	507	513	1	1018	40	24	
6	0	0	0	0	513	513	2	1018	40	24	
7	0	0	0	0	515	512	2	820	40	24	
8	0	0	0	0	519	512	1	424	40	24	
9	0	0	0	0	526	508	2	16	40	24	
10	0	0	0	0	529	503	2	0	40	24	
11	0	0	0	0	531	502	1	0	40	24	
12	0	0	0	0	522	504	1	0	40	24	
13	0	0	0	0	509	508	3	0	40	24	
14	0	0	0	0	500	511	2	0	40	24	
15	0	0	0	0	495	512	1	0	40	24	
0	0	0	0	0	494	514	2	456	40	24	
1	0	0	0	0	501	511	1	1018	40	24	
2	0	0	0	0	505	511	1	1018	40	24	
3	0	0	0	0	511	511	0	1018	40	24	
4	0	0	0	0	515	510	1	1017	40	24	
5	0	0	0	0	513	510	0	1018	40	24	
6	0	0	0	0	512	512	1	1018	40	24	
7	0	0	0	0	515	512	0	1017	40	24	
8	0	0	0	0	521	509	1	813	40	24	
9	0	0	0	0	521	506	2	415	40	24	
10	0	0	0	0	527	503	2	6	40	24	
11	0	0	0	0	527	502	2	0	40	24	
12	0	0	0	0	529	502	2	0	40	24	
13	0	0	0	0	518	504	2	0	40	24	
14	0	0	0	0	504	506	3	0	40	24	
15	0	0	0	0	498	510	1	0	40	24	
0	0	0	0	0	494	513	2	0	40	24	
1	0	0	0	0	495	514	2	827	40	24	
2	0	0	0	0	502	514	1	1018	40	24	
3	0	0	0	0	505	514	0	1018	40	24	
4	0	0	0	0	511	513	2	1018	40	24	
5	0	0	0	0	513	511	0	1018	40	24	
6	0	0	0	0	509	515	1	1018	40	24	
7	0	0	0	0	514	516	1	1018	40	24	
8	0	0	0	0	517	514	1	1017	40	24	
9	0	0	0	0	519	512	2	734	40	24	
10	0	0	0	0	525	510	2	343	40	24	
11	0	0	0	0	527	508	2	0	40	24	
12	0	0	0	0	530	503	2	0	40	24	
13	0	0	0	0	524	502	2	0	40	24	
14	0	0	0	0	514	507	2	0	40	24	
15	0	0	0	0	502	510	2	0	40	24	
0	0	0	0	0	494	513	3	0	40	24	
1	0	0	0	0	498	515	1	0	40	24	
2	0	0	0	0	495	515	1	1017	40	24	
3	0	0	0	0	501	514	0	1018	40	24	
4	0	0	0	0	507	514	2	1018	40	24	
5	0	0	0	0	515	513	0	1018	40	24	
6	0	0	0	0	514	512	0	1018	40	24	
7	0	0	0	0	510	511	0	1018	40	24	
8	0	0	0	0	513	511	2	1018	40	24	
9	0	0	0	0	518	510	1	1018	40	24	
10	0	0	0	0	521	508	0	620	40	24	
11	0	0	0	0	528	504	0	191	40	24	
12	0	0	0	0	528	501	3	0	40	24	
13	0	0	0	0	530	501	2	0	40	24	
14	0	0	0	0	522	502	2	0	40	24	
15	0	0	0	0	509	505	2	0	40	24	
0	0	0	0	0	499	509	2	0	40	24	
1	0	0	0	0	494	512	2	0	40	24	
2	0	0	0	0	497	516	3	0	40	24	
3	0	0	0	0	499	515	3	763	40	24	
4	0	0	0	0	505	515	2	1017	40	24	
5	0	0	0	0	511	515	3	1018	40	24	
6	0	0	0	0	515	515	1	1018	40	24	
7	0	0	0	0	513	514	1	1017	40	24	
8	0	0	0	0	511	515	2	668	40	24	
9	0	0	0	0	515	514	1	474	40	24	
10	0	0	0	0	518	512	0	214	40	24	
11	0	0	0	0	521	511	0	0	40	24	
12	0	0	0	0	529	508	3	0	40	24	
13	0	0	0	0	529	507	0	0	40	24	
14	0	0	0	0	529	505	2	0	40	24	
15	0	0	0	0	519	506	2	0	40	24	
0	0	0	0	0	506	509	1	0	40	24	
1	0	0	0	0	499	512	2	0	40	24	
2	0	0	0	0	497	513	3	0	40	24	
3	0	0	0	0	496	515	3	395	40	24	
4	0	0	0	0	500	511	3	1019	40	24	
5	0	0	0	0	504	511	3	1018	40	24	
6	0	0	0	0	511	510	2	1018	40	24	
7	0	0	0	0	517	510	2	1018	40	24	
8	0	0	0	0	513	510	2	1018	40	24	
9	0	0	0	0	512	512	1	1018	40	24	
10	0	0	0	0	515	509	1	897	40	24	
11	0	0	0	0	520	510	0	554	40	24	
12	0	0	0	0	527	507	3	189	40	24	
13	0	0	0	0	529	503	0	0	40	24	
14	0	0	0	0	531	502	1	0	40	24	
15	0	0	0	0	526	501	0	0	40	24	
0	0	0	0	0	513	503	2	0	40	24	
1	0	0	0	0	501	506	2	0	40	24	
2	0	0	0	0	497	511	2	0	40	24	
3	0	0	0	0	499	512	2	0	40	24	
4	0	0	0	0	496	512	2	771	40	24	
5	0	0	0	0	501	512	2	1018	40	24	
6	0	0	0	0	511	509	3	1018	40	24	
7	0	0	0	0	514	510	2	1018	40	24	
8	0	0	0	0	514	510	2	1019	40	24	
9	0	0	0	0	510	509	3	1018	40	24	
10	0	0	0	0	512	510	2	1018	40	24	
11	0	0	0	0	517	510	1	827	40	24	
12	0	0	0	0	521	507	1	434	40	24	
13	0	0	0	0	526	506	1	41	40	24	
14	0	0	0	0	525	504	1	0	40	24	
15	0	0	0	0	529	502	0	0	40	24	
0	0	0	0	0	524	501	2	0	40	24	
1	0	0	0	0	509	505	1	0	40	24	
2	0	0	0	0	500	509	1	0	40	24	
3	0	0	0	0	496	511	1	0	40	24	
4	0	0	0	0	496	513	1	0	40	24	
5	0	0	0	0	499	513	2	1018	40	24	
6	0	0	0	0	501	512	1	1018	40	24	
7	0	0	0	0	509	511	1	1018	40	24	
8	0	0	0	0	518	509	3	1017	40	24	
9	0	0	0	0	511	508	0	1018	40	24	
10	0	0	0	0	510	511	0	1018	40	24	
11	0	0	0	0	515	510	0	1017	40	24	
12	0	0	0	0	521	507	3	739	40	24	
13	0	0	0	0	520	504	1	329	40	24	
14	0	0	0	0	526	503	0	0	40	24	
15	0	0	0	0	530	502	0	0	40	24	
0	0	0	0	0	529	501	3	0	40	24	
1	0	0	0	0	516	502	0	0	40	24	
2	0	0	0	0	507	506	1	0	40	24	
3	0	0	0	0	498	510	0	0	40	24	
4	0	0	0	0	496	512	1	0	40	24	
5	0	0	0	0	496	514	1	568	40	24	
6	0	0	0	0	501	514	1	1018	40	24	
7	0	0	0	0	506	513	1	1018	40	24	
8	0	0	0	0	512	511	1	1018	40	24	
9	0	0	0	0	514	511	1	1018	40	24	
10	0	0	0	0	512	513	3	1018	40	24	
11	0	0	0	0	513	513	2	1018	40	24	
12	0	0	0	0	516	512	3	892	40	24	
13	0	0	0	0	521	508	2	554	40	24	
14	0	0	0	0	527	506	2	190	40	24	
15	0	0	0	0	529	504	2	0	40	24	
0	0	0	0	0	532	503	2	0	40	24	
1	0	0	0	0	526	503	3	0	40	24	
2	0	0	0	0	515	505	1	0	40	24	
3	0	0	0	0	503	509	1	0	40	24	
4	0	0	0	0	494	513	2	0	40	24	
5	0	0	0	0	494	512	1	0	40	24	
6	0	0	0	0	495	513	1	879	40	24	
7	0	0	0	0	501	514	0	1018	40	24	
8	0	0	0	0	509	513	4	1019	40	24	
9	0	0	0	0	515	511	1	1018	40	24	
10	0	0	0	0	517	512	3	1018	40	24	
11	0	0	0	0	509	512	2	1018	40	24	
12	0	0	0	0	514	513	3	1019	40	24	
13	0	0	0	0	517	510	2	1018	40	24	
14	0	0	0	0	520	508	3	733	40	24	
15	0	0	0	0	528	507	2	294	40	24	
0	0	0	0	0	528	504	1	0	40	24	
1	0	0	0	0	529	505	1	0	40	24	
2	0	0	0	0	521	506	1	0	40	24	
3	0	0	0	0	508	511	0	0	40	24	
4	0	0	0	0	502	513	3	0	40	24	
5	0	0	0	0	498	513	1	0	40	24	
6	0	0	0	0	496	515	0	248	40	24	
7	0	0	0	0	501	518	1	965	40	24	
8	0	0	0	0	503	514	3	1018	40	24	
9	0	0	0	0	509	511	1	1018	40	24	
10	0	0	0	0	515	510	3	1018	40	24	
11	0	0	0	0	512	511	2	1018	40	24	
12	0	0	0	0	513	512	3	1019	40	24	
13	0	0	0	0	517	510	3	775	40	24	
14	0	0	0	0	518	509	2	494	40	24	
15	0	0	0	0	523	509	2	138	40	24	
0	0	0	0	0	525	507	3	0	40	24	
1	0	0	0	0	529	503	2	0	40	24	
2	0	0	0	0	531	502	3	0	40	24	
3	0	0	0	0	518	504	2	0	40	24	
4	0	0	0	0	506	507	1	0	40	24	
5	0	0	0	0	496	510	3	0	40	24	
6	0	0	0	0	494	514	3	0	40	24	
7	0	0	0	0	496	516	2	459	40	24	
8	0	0	0	0	502	514	3	1018	40	24	
9	0	0	0	0	505	513	1	1018	40	24	
10	0	0	0	0	513	512	0	1018	40	24	
11	0	0	0	0	516	511	0	1018	40	24	
12	0	0	0	0	512	514	3	1018	40	24	
13	0	0	0	0	511	513	0	1018	40	24	
14	0	0	0	0	514	513	0	1018	40	24	
15	0	0	0	0	518	513	0	759	40	24	
0	0	0	0	0	525	512	3	392	40	24	
1	0	0	0	0	529	508	1	6	40	24	
2	0	0	0	0	531	506	2	0	40	24	
3	0	0	0	0	523	507	2	0	40	24	
4	0	0	0	0	512	510	1	0	40	24	
5	0	0	0	0	500	512	2	0	40	24	
6	0	0	0	0	496	518	3	0	40	24	
7	0	0	0	0	494	519	2	318	40	24	
8	0	0	0	0	497	521	2	1016	40	24	
9	0	0	0	0	504	518	1	1018	40	24	
10	0	0	0	0	508	515	1	1018	40	24	
11	0	0	0	0	514	515	0	1018	40	24	
12	0	0	0	0	515	513	3	1018	40	24	
13	0	0	0	0	511	512	0	1018	40	24	
14	0	0	0	0	515	513	0	1018	40	24	
15	0	0	0	0	518	510	2	797	40	24	
0	0	0	0	0	524	507	1	404	40	24	
1	0	0	0	0	529	506	2	17	40	24	
2	0	0	0	0	528	504	2	0	40	24	
3	0	0	0	0	528	505	2	0	40	24	
4	0	0	0	0	519	504	1	0	40	24	
5	0	0	0	0	508	507	3	0	40	24	
6	0	0	0	0	500	509	1	0	40	24	
7	0	0	0	0	496	512	1	0	40	24	
8	0	0	0	0	495	515	2	0	40	24	
9	0	0	0	0	498	516	1	1016	40	24	
10	0	0	0	0	504	517	1	1018	40	24	
11	0	0	0	0	511	515	1	1018	40	24	
12	0	0	0	0	517	513	3	1019	40	24	
13	0	0	0	0	513	513	2	1018	40	24	
14	0	0	0	0	511	515	2	1018	40	24	
15	0	0	0	0	513	514	2	1018	40	24	
0	0	0	0	0	519	510	1	1019	40	24	
1	0	0	0	0	522	507	3	542	40	24	
2	0	0	0	0	529	504	1	92	40	24	
3	0	0	0	0	531	503	1	0	40	24	
4	0	0	0	0	529	503	2	0	40	24	
5	0	0	0	0	516	503	1	0	40	24	
6	0	0	0	0	503	505	0	0	40	24	
7	0	0	0	0	498	510	0	0	40	24	
8	0	0	0	0	497	512	3	0	40	24	
9	0	0	0	0	496	513	0	470	40	24	
10	0	0	0	0	501	515	1	1018	40	24	
11	0	0	0	0	506	515	2	1018	40	24	
12	0	0	0	0	515	512	0	1017	40	24	
13	0	0	0	0	517	510	2	1018	40	24	
14	0	0	0	0	514	513	3	1018	40	24	
15	0	0	0	0	514	513	3	1018	40	24	
0	0	0	0	0	514	510	2	759	40	24	
1	0	0	0	0	519	505	1	469	40	24	
2	0	0	0	0	524	504	1	137	40	24	
3	0	0	0	0	526	504	0	0	40	24	
4	0	0	0	0	529	501	1	0	40	24	
5	0	0	0	0	525	502	0	0	40	24	
6	0	0	0	0	515	507	2	0	40	24	
7	0	0	0	0	503	509	2	0	40	24	
8	0	0	0	0	496	513	2	0	40	24	
9	0	0	0	0	498	516	2	0	40	24	
10	0	0	0	0	496	515	3	664	40	24	
11	0	0	0	0	500	516	2	1018	40	24	
12	0	0	0	0	510	514	1	1019	40	24	
13	0	0	0	0	513	513	1	1018	40	24	
14	0	0	0	0	514	512	0	1018	40	24	
15	0	0	0	0	511	513	1	1018	40	24	
0	0	0	0	0	513	511	1	1017	40	24	
1	0	0	0	0	517	510	1	759	40	24	
2	0	0	0	0	520	510	3	494	40	24	
3	0	0	0	0	529	508	2	153	40	24	
4	0	0	0	0	528	502	1	0	40	24	
5	0	0	0	0	529	500	2	0	40	24	
6	0	0	0	0	522	503	2	0	40	24	
7	0	0	0	0	507	507	2	0	40	24	
8	0	0	0	0	503	508	2	0	40	24	
9	0	0	0	0	495	510	2	0	40	24	
10	0	0	0	0	496	513	3	273	40	24	
11	0	0	0	0	497	515	3	980	40	24	
12	0	0	0	0	505	514	3	1018	40	24	
13	0	0	0	0	509	513	3	1018	40	24	
14	0	0	0	0	517	512	3	1018	40	24	
15	0	0	0	0	512	511	2	1018	40	24	
0	0	0	0	0	512	511	2	885	40	24	
1	0	0	0	0	513	510	1	662	40	24	
2	0	0	0	0	519	510	1	398	40	24	
3	0	0	0	0	522	508	0	85	40	24	
4	0	0	0	0	528	505	1	0	40	24	
5	0	0	0	0	530	504	1	0	40	24	
6	0	0	0	0	529	502	1	0	40	24	
7	0	0	0	0	516	503	0	0	40	24	
8	0	0	0	0	505	507	3	0	40	24	
9	0	0	0	0	499	510	1	0	40	24	
10	0	0	0	0	497	513	1	0	40	24	
11	0	0	0	0	498	515	1	560	40	24	
12	0	0	0	0	503	514	3	1018	40	24	
13	0	0	0	0	508	513	1	1018	40	24	
14	0	0	0	0	512	513	1	1018	40	24	
15	0	0	0	0	516	512	1	1018	40	24	
0	0	0	0	0	511	512	2	1018	40	24	
1	0	0	0	0	511	510	1	1018	40	24	
2	0	0	0	0	515	510	1	725	40	24	
3	0	0	0	0	521	509	0	416	40	24	
4	0	0	0	0	524	504	2	79	40	24	
5	0	0	0	0	528	503	1	0	40	24	
6	0	0	0	0	527	502	1	0	40	24	
7	0	0	0	0	524	501	0	0	40	24	
8	0	0	0	0	512	504	1	0	40	24	
9	0	0	0	0	500	507	2	0	40	24	
10	0	0	0	0	494	510	1	0	40	24	
11	0	0	0	0	494	513	1	279	40	24	
12	0	0	0	0	496	515	3	1017	40	24	
13	0	0	0	0	500	514	1	1018	40	24	
14	0	0	0	0	510	512	1	1018	40	24	
15	0	0	0	0	517	511	0	1018	40	24	
0	0	0	0	0	514	511	3	1019	40	24	
1	0	0	0	0	511	509	1	1018	40	24	
2	0	0	0	0	515	510	0	1018	40	24	
3	0	0	0	0	520	510	0	1018	40	24	
4	0	0	0	0	522	508	3	773	40	24	
5	0	0	0	0	529	505	1	328	40	24	
6	0	0	0	0	528	503	2	0	40	24	
7	0	0	0	0	531	504	1	0	40	24	
8	0	0	0	0	523	504	3	0	40	24	
9	0	0	0	0	508	504	2	0	40	24	
10	0	0	0	0	498	507	2	0	40	24	
11	0	0	0	0	495	512	2	0	40	24	
12	0	0	0	0	496	516	1	0	40	24	
13	0	0	0	0	499	516	2	759	40	24	
14	0	0	0	0	506	516	3	1018	40	24	
15	0	0	0	0	511	516	2	1018	40	24	
0	0	0	0	0	514	513	3	1017	40	24	
1	0	0	0	0	510	513	2	1018	40	24	
2	0	0	0	0	511	513	3	1018	40	24	
3	0	0	0	0	514	512	2	768	40	24	
4	0	0	0	0	519	510	1	501	40	24	
5	0	0	0	0	522	506	2	182	40	24	
6	0	0	0	0	529	505	1	0	40	24	
7	0	0	0	0	529	503	1	0	40	24	
8	0	0	0	0	529	503	2	0	40	24	
9	0	0	0	0	520	504	1	0	40	24	
10	0	0	0	0	505	508	1	0	40	24	
11	0	0	0	0	497	513	0	0	40	24	
12	0	0	0	0	492	514	3	0	40	24	
13	0	0	0	0	496	515	0	555	40	24	
14	0	0	0	0	502	517	1	1018	40	24	
15	0	0	0	0	506	516	1	1018	40	24	
0	0	0	0	0	513	513	1	1018	40	24	
1	0	0	0	0	514	512	3	1018	40	24	
2	0	0	0	0	509	511	3	1018	40	24	
3	0	0	0	0	515	510	3	1018	40	24	
4	0	0	0	0	515	510	3	1019	40	24	
5	0	0	0	0	519	508	2	774	40	24	
6	0	0	0	0	523	508	3	377	40	24	
7	0	0	0	0	527	506	2	0	40	24	
8	0	0	0	0	530	504	2	0	40	24	
9	0	0	0	0	525	504	2	0	40	24	
10	0	0	0	0	514	505	1	0	40	24	
11	0	0	0	0	502	508	1	0	40	24	
12	0	0	0	0	496	511	3	0	40	24	
13	0	0	0	0	498	515	1	0	40	24	
14	0	0	0	0	498	516	1	839	40	24	
15	0	0	0	0	502	516	0	1018	40	24	
0	0	0	0	0	509	512	3	1018	40	24	
1	0	0	0	0	516	511	1	1018	40	24	
2	0	0	0	0	515	512	0	1018	40	24	
3	0	0	0	0	510	511	0	1018	40	24	
4	0	0	0	0	510	509	2	1018	40	24	
5	0	0	0	0	515	509	0	856	40	24	
6	0	0	0	0	521	508	0	585	40	24	
7	0	0	0	0	526	506	2	244	40	24	
8	0	0	0	0	528	504	3	0	40	24	
9	0	0	0	0	528	503	2	0	40	24	
10	0	0	0	0	522	504	2	0	40	24	
11	0	0	0	0	508	508	2	0	40	24	
12	0	0	0	0	504	510	1	0	40	24	
13	0	0	0	0	493	511	2	0	40	24	
14	0	0	0	0	495	515	2	469	40	24	
15	0	0	0	0	499	515	2	1018	40	24	
0	0	0	0	0	504	514	2	1019	40	24	
1	0	0	0	0	509	512	1	1018	40	24	
2	0	0	0	0	515	509	1	1019	40	24	
3	0	0	0	0	513	511	0	1018	40	24	
4	0	0	0	0	512	511	3	1018	40	24	
5	0	0	0	0	514	510	1	1018	40	24	
6	0	0	0	0	520	508	1	1018	40	24	
7	0	0	0	0	521	505	0	774	40	24	
8	0	0	0	0	529	504	2	310	40	24	
9	0	0	0	0	529	501	1	0	40	24	
10	0	0	0	0	530	501	1	0	40	24	
11	0	0	0	0	519	505	0	0	40	24	
12	0	0	0	0	506	509	2	0	40	24	
13	0	0	0	0	496	511	1	0	40	24	
14	0	0	0	0	494	514	1	245	40	24	
15	0	0	0	0	496	514	1	1017	40	24	
0	0	0	0	0	503	514	1	1019	40	24	
1	0	0	0	0	501	511	1	1019	40	24	
2	0	0	0	0	512	510	0	1018	40	24	
3	0	0	0	0	516	507	0	1018	40	24	
4	0	0	0	0	512	509	3	1019	40	24	
5	0	0	0	0	515	509	1	1018	40	24	
6	0	0	0	0	515	508	1	1018	40	24	
7	0	0	0	0	518	507	0	1017	40	24	
8	0	0	0	0	523	505	0	529	40	24	
9	0	0	0	0	529	505	2	126	40	24	
10	0	0	0	0	529	504	2	0	40	24	
11	0	0	0	0	526	504	2	0	40	24	
12	0	0	0	0	513	506	2	0	40	24	
13	0	0	0	0	503	510	3	0	40	24	
14	0	0	0	0	496	513	3	0	40	24	
15	0	0	0	0	496	515	1	0	40	24	
0	0	0	0	0	496	515	2	831	40	24	
1	0	0	0	0	501	514	1	1018	40	24	
2	0	0	0	0	510	514	1	1018	40	24	
3	0	0	0	0	514	516	0	1018	40	24	
4	0	0	0	0	514	515	4	1019	40	24	
5	0	0	0	0	511	515	0	1018	40	24	
6	0	0	0	0	515	515	2	1018	40	24	
7	0	0	0	0	517	513	2	705	40	24	
8	0	0	0	0	522	512	3	382	40	24	
9	0	0	0	0	529	508	2	30	40	24	
10	0	0	0	0	527	505	2	0	40	24	
11	0	0	0	0	532	503	1	0	40	24	
12	0	0	0	0	523	502	1	0	40	24	
13	0	0	0	0	511	505	2	0	40	24	
14	0	0	0	0	502	508	2	0	40	24	
15	0	0	0	0	496	512	1	0	40	24	
0	0	0	0	0	495	513	1	361	40	24	
1	0	0	0	0	497	511	2	1018	40	24	
2	0	0	0	0	504	512	1	1018	40	24	
3	0	0	0	0	511	511	1	1018	40	24	
4	0	0	0	0	514	510	1	1019	40	24	
5	0	0	0	0	512	510	1	1018	40	24	
6	0	0	0	0	512	511	1	1018	40	24	
7	0	0	0	0	517	512	1	1017	40	24	
8	0	0	0	0	519	508	1	786	40	24	
9	0	0	0	0	522	506	1	368	40	24	
10	0	0	0	0	527	504	2	0	40	24	
11	0	0	0	0	530	504	2	0	40	24	
12	0	0	0	0	529	503	1	0	40	24	
13	0	0	0	0	518	504	1	0	40	24	
14	0	0	0	0	504	507	2	0	40	24	
15	0	0	0	0	499	510	2	0	40	24	
0	0	0	0	0	494	513	3	0	40	24	
1	0	0	0	0	494	514	3	0	40	24	
2	0	0	0	0	498	514	3	686	40	24	
3	0	0	0	0	506	513	2	1017	40	24	
4	0	0	0	0	513	510	1	1018	40	24	
5	0	0	0	0	516	509	3	901	40	24	
6	0	0	0	0	512	511	3	664	40	24	
7	0	0	0	0	512	511	2	496	40	24	
8	0	0	0	0	513	511	1	334	40	24	
9	0	0	0	0	519	510	2	111	40	24	
10	0	0	0	0	524	507	2	0	40	24	
11	0	0	0	0	527	505	2	0	40	24	
12	0	0	0	0	529	501	3	0	40	24	
13	0	0	0	0	524	501	2	0	40	24	
14	0	0	0	0	513	506	2	0	40	24	
15	0	0	0	0	503	510	2	0	40	24	
0	0	0	0	0	497	513	3	0	40	24	
1	0	0	0	0	494	514	3	0	40	24	
2	0	0	0	0	495	515	2	319	40	24	
3	0	0	0	0	502	517	2	867	40	24	
4	0	0	0	0	511	515	2	1018	40	24	
5	0	0	0	0	516	511	3	1018	40	24	
6	0	0	0	0	517	509	2	1018	40	24	
7	0	0	0	0	513	511	2	908	40	24	
8	0	0	0	0	513	511	3	702	40	24	
9	0	0	0	0	518	510	3	513	40	24	
10	0	0	0	0	521	508	3	287	40	24	
11	0	0	0	0	525	505	1	4	40	24	
12	0	0	0	0	529	502	1	0	40	24	
13	0	0	0	0	531	500	1	0	40	24	
14	0	0	0	0	524	502	0	0	40	24	
15	0	0	0	0	509	508	0	0	40	24	
0	0	0	0	0	500	510	2	0	40	24	
1	0	0	0	0	496	514	1	0	40	24	
2	0	0	0	0	497	517	3	323	40	24	
3	0	0	0	0	500	516	2	996	40	24	
4	0	0	0	0	504	516	2	1018	40	24	
5	0	0	0	0	509	515	2	1018	40	24	
6	0	0	0	0	517	514	3	1018	40	24	
7	0	0	0	0	513	514	2	1018	40	24	
8	0	0	0	0	510	515	3	1018	40	24	
9	0	0	0	0	512	515	2	878	40	24	
10	0	0	0	0	518	512	1	593	40	24	
11	0	0	0	0	519	509	0	299	40	24	
12	0	0	0	0	527	507	1	0	40	24	
13	0	0	0	0	530	505	0	0	40	24	
14	0	0	0	0	527	504	0	0	40	24	
15	0	0	0	0	519	505	0	0	40	24	
0	0	0	0	0	503	504	2	0	40	24	
1	0	0	0	0	498	508	2	0	40	24	
2	0	0	0	0	495	511	2	0	40	24	
3	0	0	0	0	494	513	2	725	40	24	
4	0	0	0	0	500	513	2	1019	40	24	
5	0	0	0	0	505	512	3	1019	40	24	
6	0	0	0	0	512	510	2	1018	40	24	
7	0	0	0	0	515	511	2	1018	40	24	
8	0	0	0	0	509	512	3	1018	40	24	
9	0	0	0	0	513	512	2	1018	40	24	
10	0	0	0	0	516	509	1	1018	40	24	
11	0	0	0	0	520	509	0	698	40	24	
12	0	0	0	0	525	506	2	336	40	24	
13	0	0	0	0	527	505	0	0	40	24	
14	0	0	0	0	531	502	0	0	40	24	
15	0	0	0	0	525	503	0	0	40	24	
0	0	0	0	0	513	505	1	0	40	24	
1	0	0	0	0	504	509	2	0	40	24	
2	0	0	0	0	497	513	2	0	40	24	
3	0	0	0	0	498	515	2	456	40	24	
4	0	0	0	0	498	516	3	1018	40	24	
5	0	0	0	0	504	514	2	1018	40	24	
6	0	0	0	0	509	514	2	1018	40	24	
7	0	0	0	0	514	514	1	1018	40	24	
8	0	0	0	0	515	511	2	1019	40	24	
9	0	0	0	0	511	511	1	1018	40	24	
10	0	0	0	0	513	512	0	1018	40	24	
11	0	0	0	0	517	510	0	1018	40	24	
12	0	0	0	0	521	509	3	674	40	24	
13	0	0	0	0	527	505	1	265	40	24	
14	0	0	0	0	529	505	2	0	40	24	
15	0	0	0	0	532	504	1	0	40	24	
0	0	0	0	0	524	504	1	0	40	24	
1	0	0	0	0	508	508	2	0	40	24	
2	0	0	0	0	498	509	3	0	40	24	
3	0	0	0	0	493	511	3	0	40	24	
4	0	0	0	0	496	514	2	560	40	24	
5	0	0	0	0	496	514	3	1018	40	24	
6	0	0	0	0	505	513	2	1018	40	24	
7	0	0	0	0	512	513	1	1018	40	24	
8	0	0	0	0	516	511	1	1019	40	24	
9	0	0	0	0	512	512	0	1018	40	24	
10	0	0	0	0	514	512	0	1018	40	24	
11	0	0	0	0	513	512	0	1017	40	24	
12	0	0	0	0	519	511	3	831	40	24	
13	0	0	0	0	522	508	0	437	40	24	
14	0	0	0	0	527	506	2	52	40	24	
15	0	0	0	0	531	504	2	0	40	24	
0	0	0	0	0	531	502	3	0	40	24	
1	0	0	0	0	519	503	2	0	40	24	
2	0	0	0	0	506	507	2	0	40	24	
3	0	0	0	0	499	510	2	0	40	24	
4	0	0	0	0	496	513	1	0	40	24	
5	0	0	0	0	496	515	3	0	40	24	
6	0	0	0	0	499	516	3	811	40	24	
7	0	0	0	0	508	515	2	1018	40	24	
8	0	0	0	0	513	512	3	1019	40	24	
9	0	0	0	0	515	510	3	1018	40	24	
10	0	0	0	0	512	514	2	825	40	24	
11	0	0	0	0	510	515	2	632	40	24	
12	0	0	0	0	516	512	1	399	40	24	
13	0	0	0	0	520	509	1	152	40	24	
14	0	0	0	0	523	507	1	0	40	24	
15	0	0	0	0	527	506	0	0	40	24	
0	0	0	0	0	530	504	3	0	40	24	
1	0	0	0	0	527	502	0	0	40	24	
2	0	0	0	0	514	505	1	0	40	24	
3	0	0	0	0	503	508	0	0	40	24	
4	0	0	0	0	497	512	3	0	40	24	
5	0	0	0	0	494	513	0	0	40	24	
6	0	0	0	0	495	515	3	883	40	24	
7	0	0	0	0	502	515	2	1018	40	24	
8	0	0	0	0	508	513	2	1018	40	24	
9	0	0	0	0	514	511	2	1018	40	24	
10	0	0	0	0	515	511	3	1018	40	24	
11	0	0	0	0	510	513	2	1018	40	24	
12	0	0	0	0	514	514	1	1017	40	24	
13	0	0	0	0	518	512	2	718	40	24	
14	0	0	0	0	519	512	2	441	40	24	
15	0	0	0	0	525	510	1	131	40	24	
0	0	0	0	0	531	507	1	0	40	24	
1	0	0	0	0	532	505	0	0	40	24	
2	0	0	0	0	525	506	0	0	40	24	
3	0	0	0	0	510	510	0	0	40	24	
4	0	0	0	0	501	510	3	0	40	24	
5	0	0	0	0	492	511	0	0	40	24	
6	0	0	0	0	496	513	0	505	40	24	
7	0	0	0	0	499	514	1	1018	40	24	
8	0	0	0	0	505	512	2	1018	40	24	
9	0	0	0	0	511	511	0	1018	40	24	
10	0	0	0	0	513	508	0	1018	40	24	
11	0	0	0	0	514	510	0	1018	40	24	
12	0	0	0	0	511	511	2	1019	40	24	
13	0	0	0	0	513	511	0	1018	40	24	
14	0	0	0	0	519	511	0	1018	40	24	
15	0	0	0	0	520	511	0	565	40	24	
0	0	0	0	0	527	508	1	188	40	24	
1	0	0	0	0	527	506	0	0	40	24	
2	0	0	0	0	527	505	0	0	40	24	
3	0	0	0	0	519	507	2	0	40	24	
4	0	0	0	0	502	510	2	0	40	24	
5	0	0	0	0	498	513	2	0	40	24	
6	0	0	0	0	496	515	2	0	40	24	
7	0	0	0	0	495	515	2	908	40	24	
8	0	0	0	0	499	515	4	1019	40	24	
9	0	0	0	0	503	512	3	1019	40	24	
10	0	0	0	0	512	512	2	1018	40	24	
11	0	0	0	0	515	510	2	1018	40	24	
12	0	0	0	0	511	511	2	1018	40	24	
13	0	0	0	0	511	511	3	1018	40	24	
14	0	0	0	0	517	510	2	1018	40	24	
15	0	0	0	0	522	509	0	1017	40	24	
0	0	0	0	0	526	508	1	622	40	24	
1	0	0	0	0	528	506	1	179	40	24	
2	0	0	0	0	530	505	0	0	40	24	
3	0	0	0	0	526	502	0	0	40	24	
4	0	0	0	0	515	506	3	0	40	24	
5	0	0	0	0	504	507	0	0	40	24	
6	0	0	0	0	497	512	1	0	40	24	
7	0	0	0	0	499	514	0	287	40	24	
8	0	0	0	0	499	517	3	1019	40	24	
9	0	0	0	0	501	515	0	1018	40	24	
10	0	0	0	0	508	516	1	1018	40	24	
11	0	0	0	0	515	513	0	1018	40	24	
12	0	0	0	0	515	514	3	1019	40	24	
13	0	0	0	0	510	513	0	1019	40	24	
14	0	0	0	0	512	512	0	1018	40	24	
15	0	0	0	0	515	511	0	1018	40	24	
0	0	0	0	0	521	508	3	843	40	24	
1	0	0	0	0	528	505	0	322	40	24	
2	0	0	0	0	527	502	0	0	40	24	
3	0	0	0	0	528	502	0	0	40	24	
4	0	0	0	0	521	503	1	0	40	24	
5	0	0	0	0	509	507	0	0	40	24	
6	0	0	0	0	502	512	1	0	40	24	
7	0	0	0	0	493	513	0	0	40	24	
8	0	0	0	0	495	516	2	439	40	24	
9	0	0	0	0	499	515	1	1018	40	24	
10	0	0	0	0	504	518	3	1018	40	24	
11	0	0	0	0	512	516	2	1018	40	24	
12	0	0	0	0	515	515	3	1019	40	24	
13	0	0	0	0	512	514	2	1018	40	24	
14	0	0	0	0	511	516	3	1018	40	24	
15	0	0	0	0	513	516	2	1017	40	24	
0	0	0	0	0	518	512	1	780	40	24	
1	0	0	0	0	524	509	3	435	40	24	
2	0	0	0	0	529	506	2	71	40	24	
3	0	0	0	0	531	507	2	0	40	24	
4	0	0	0	0	530	503	3	0	40	24	
5	0	0	0	0	519	505	2	0	40	24	
6	0	0	0	0	507	507	2	0	40	24	
7	0	0	0	0	499	511	2	0	40	24	
8	0	0	0	0	497	512	3	0	40	24	
9	0	0	0	0	493	514	3	464	40	24	
10	0	0	0	0	500	515	3	1018	40	24	
11	0	0	0	0	504	513	2	1018	40	24	
12	0	0	0	0	511	512	4	1019	40	24	
13	0	0	0	0	515	508	3	1018	40	24	
14	0	0	0	0	513	511	3	1018	40	24	
15	0	0	0	0	513	511	2	711	40	24	
0	0	0	0	0	515	510	1	473	40	24	
1	0	0	0	0	519	510	2	207	40	24	
2	0	0	0	0	525	508	2	0	40	24	
3	0	0	0	0	527	507	2	0	40	24	
4	0	0	0	0	527	504	1	0	40	24	
5	0	0	0	0	527	504	2	0	40	24	
6	0	0	0	0	513	506	2	0	40	24	
7	0	0	0	0	504	509	2	0	40	24	
8	0	0	0	0	496	512	3	0	40	24	
9	0	0	0	0	495	513	1	0	40	24	
10	0	0	0	0	494	515	3	630	40	24	
11	0	0	0	0	501	515	2	1018	40	24	
12	0	0	0	0	508	514	3	1019	40	24	
13	0	0	0	0	515	512	1	1018	40	24	
14	0	0	0	0	515	511	2	1018	40	24	
15	0	0	0	0	511	511	2	1018	40	24	
0	0	0	0	0	512	511	1	1018	40	24	
1	0	0	0	0	516	508	3	1018	40	24	
2	0	0	0	0	521	507	3	618	40	24	
3	0	0	0	0	527	506	2	205	40	24	
4	0	0	0	0	527	505	3	0	40	24	
5	0	0	0	0	527	504	2	0	40	24	
6	0	0	0	0	523	504	2	0	40	24	
7	0	0	0	0	509	508	2	0	40	24	
8	0	0	0	0	504	509	1	0	40	24	
9	0	0	0	0	496	515	3	0	40	24	
10	0	0	0	0	497	518	2	454	40	24	
11	0	0	0	0	500	518	2	1018	40	24	
12	0	0	0	0	505	517	3	1019	40	24	
13	0	0	0	0	510	514	3	1019	40	24	
14	0	0	0	0	515	514	3	1019	40	24	
15	0	0	0	0	511	515	2	1018	40	24	
0	0	0	0	0	510	513	3	1019	40	24	
1	0	0	0	0	513	511	3	1018	40	24	
2	0	0	0	0	520	509	2	1018	40	24	
3	0	0	0	0	521	506	2	766	40	24	
4	0	0	0	0	530	503	1	290	40	24	
5	0	0	0	0	530	501	2	0	40	24	
6	0	0	0	0	528	501	2	0	40	24	
7	0	0	0	0	520	504	2	0	40	24	
8	0	0	0	0	507	505	3	0	40	24	
9	0	0	0	0	499	509	2	0	40	24	
10	0	0	0	0	496	513	2	248	40	24	
11	0	0	0	0	495	517	3	1017	40	24	
12	0	0	0	0	500	516	3	1019	40	24	
13	0	0	0	0	507	513	3	1019	40	24	
14	0	0	0	0	511	514	2	1018	40	24	
15	0	0	0	0	515	515	2	1018	40	24	
0	0	0	0	0	515	515	3	1019	40	24	
1	0	0	0	0	513	512	3	1018	40	24	
2	0	0	0	0	516	510	3	1018	40	24	
3	0	0	0	0	519	508	2	1018	40	24	
4	0	0	0	0	525	507	3	657	40	24	
5	0	0	0	0	529	504	2	153	40	24	
6	0	0	0	0	529	503	2	0	40	24	
7	0	0	0	0	525	502	2	0	40	24	
8	0	0	0	0	513	504	2	0	40	24	
9	0	0	0	0	503	507	3	0	40	24	
10	0	0	0	0	495	511	3	0	40	24	
11	0	0	0	0	495	513	2	0	40	24	
12	0	0	0	0	496	514	3	663	40	24	
13	0	0	0	0	501	513	2	1018	40	24	
14	0	0	0	0	506	512	3	1018	40	24	
15	0	0	0	0	514	512	3	1017	40	24	
0	0	0	0	0	513	512	4	1019	40	24	
1	0	0	0	0	511	512	2	1018	40	24	
2	0	0	0	0	512	513	2	842	40	24	
3	0	0	0	0	516	512	2	538	40	24	
4	0	0	0	0	520	511	3	203	40	24	
5	0	0	0	0	526	508	2	0	40	24	
6	0	0	0	0	528	505	3	0	40	24	
7	0	0	0	0	529	504	2	0	40	24	
8	0	0	0	0	525	507	3	0	40	24	
9	0	0	0	0	510	508	2	0	40	24	
10	0	0	0	0	504	510	3	0	40	24	
11	0	0	0	0	495	515	3	0	40	24	
12	0	0	0	0	496	517	3	411	40	24	
13	0	0	0	0	497	514	3	1018	40	24	
14	0	0	0	0	503	514	3	1018	40	24	
15	0	0	0	0	510	514	3	1018	40	24	
0	0	0	0	0	516	512	3	1019	40	24	
1	0	0	0	0	514	511	2	1018	40	24	
2	0	0	0	0	510	512	3	1018	40	24	
3	0	0	0	0	515	512	3	1018	40	24	
4	0	0	0	0	518	510	1	1018	40	24	
5	0	0	0	0	522	507	2	472	40	24	
6	0	0	0	0	529	504	0	32	40	24	
7	0	0	0	0	529	502	0	0	40	24	
8	0	0	0	0	527	501	3	0	40	24	
9	0	0	0	0	518	504	0	0	40	24	
10	0	0	0	0	504	506	1	0	40	24	
11	0	0	0	0	500	509	0	0	40	24	
12	0	0	0	0	497	512	3	0	40	24	
13	0	0	0	0	494	513	3	312	40	24	
14	0	0	0	0	501	514	2	884	40	24	
15	0	0	0	0	505	514	2	1018	40	24	
0	0	0	0	0	513	514	3	1019	40	24	
1	0	0	0	0	518	513	2	1018	40	24	
2	0	0	0	0	512	514	3	1018	40	24	
3	0	0	0	0	515	515	2	855	40	24	
4	0	0	0	0	517	511	1	657	40	24	
5	0	0	0	0	520	509	2	405	40	24	
6	0	0	0	0	524	507	1	97	40	24	
7	0	0	0	0	528	506	1	0	40	24	
8	0	0	0	0	529	504	2	0	40	24	
9	0	0	0	0	526	502	1	0	40	24	
10	0	0	0	0	515	507	0	0	40	24	
11	0	0	0	0	504	510	0	0	40	24	
12	0	0	0	0	497	513	3	0	40	24	
13	0	0	0	0	497	513	1	0	40	24	
14	0	0	0	0	496	513	3	944	40	24	
15	0	0	0	0	503	514	2	1018	40	24	
0	0	0	0	0	510	515	3	1019	40	24	
1	0	0	0	0	515	513	2	1018	40	24	
2	0	0	0	0	517	513	3	1018	40	24	
3	0	0	0	0	511	512	3	1018	40	24	
4	0	0	0	0	513	514	2	1019	40	24	
5	0	0	0	0	516	511	2	1018	40	24	
6	0	0	0	0	520	508	1	739	40	24	
7	0	0	0	0	527	506	1	333	40	24	
8	0	0	0	0	529	504	2	0	40	24	
9	0	0	0	0	529	503	0	0	40	24	
10	0	0	0	0	523	505	0	0	40	24	
11	0	0	0	0	512	508	2	0	40	24	
12	0	0	0	0	503	512	3	0	40	24	
13	0	0	0	0	495	513	3	0	40	24	
14	0	0	0	0	495	515	2	512	40	24	
15	0	0	0	0	496	516	3	1018	40	24	
0	0	0	0	0	503	517	3	1019	40	24	
1	0	0	0	0	510	513	3	1018	40	24	
2	0	0	0	0	515	511	3	1019	40	24	
3	0	0	0	0	513	514	1	1018	40	24	
4	0	0	0	0	513	515	4	1019	40	24	
5	0	0	0	0	513	513	2	1018	40	24	
6	0	0	0	0	521	512	3	1018	40	24	
7	0	0	0	0	520	509	2	736	40	24	
8	0	0	0	0	526	508	3	254	40	24	
9	0	0	0	0	529	505	2	0	40	24	
10	0	0	0	0	528	505	2	0	40	24	
11	0	0	0	0	520	506	2	0	40	24	
12	0	0	0	0	505	508	2	0	40	24	
13	0	0	0	0	498	511	2	0	40	24	
14	0	0	0	0	496	513	3	0	40	24	
15	0	0	0	0	494	515	2	310	40	24	
0	0	0	0	0	500	515	3	862	40	24	
1	0	0	0	0	505	515	3	1018	40	24	
2	0	0	0	0	513	514	3	1018	40	24	
3	0	0	0	0	517	512	2	1017	40	24	
4	0	0	0	0	513	513	3	872	40	24	
5	0	0	0	0	509	512	3	693	40	24	
6	0	0	0	0	515	511	2	491	40	24	
7	0	0	0	0	521	508	2	242	40	24	
8	0	0	0	0	525	509	2	0	40	24	
9	0	0	0	0	528	507	2	0	40	24	
10	0	0	0	0	529	504	2	0	40	24	
11	0	0	0	0	527	505	2	0	40	24	
12	0	0	0	0	515	508	2	0	40	24	
13	0	0	0	0	504	509	3	0	40	24	
14	0	0	0	0	496	512	2	0	40	24	
15	0	0	0	0	496	513	2	0	40	24	
0	0	0	0	0	496	514	3	716	40	24	
1	0	0	0	0	499	514	2	1018	40	24	
2	0	0	0	0	508	514	1	1018	40	24	
3	0	0	0	0	514	513	1	1017	40	24	
4	0	0	0	0	515	511	3	1019	40	24	
5	0	0	0	0	511	511	0	1018	40	24	
6	0	0	0	0	515	513	1	756	40	24	
7	0	0	0	0	518	511	0	499	40	24	
8	0	0	0	0	521	509	3	199	40	24	
9	0	0	0	0	527	504	2	0	40	24	
10	0	0	0	0	529	504	2	0	40	24	
11	0	0	0	0	533	503	2	0	40	24	
12	0	0	0	0	525	504	3	0	40	24	
13	0	0	0	0	511	505	2	0	40	24	
14	0	0	0	0	502	507	3	0	40	24	
15	0	0	0	0	498	511	3	0	40	24	
0	0	0	0	0	496	513	3	0	40	24	
1	0	0	0	0	499	511	3	546	40	24	
2	0	0	0	0	503	513	3	1018	40	24	
3	0	0	0	0	507	512	3	1018	40	24	
4	0	0	0	0	512	509	1	1019	40	24	
5	0	0	0	0	511	509	2	1018	40	24	
6	0	0	0	0	508	509	3	1018	40	24	
7	0	0	0	0	512	511	3	835	40	24	
8	0	0	0	0	518	509	1	554	40	24	
9	0	0	0	0	520	508	2	208	40	24	
10	0	0	0	0	525	507	2	0	40	24	
11	0	0	0	0	527	503	2	0	40	24	
12	0	0	0	0	527	501	2	0	40	24	
13	0	0	0	0	516	502	2	0	40	24	
14	0	0	0	0	504	506	1	0	40	24	
15	0	0	0	0	499	512	0	0	40	24	
0	0	0	0	0	497	513	2	0	40	24	
1	0	0	0	0	497	513	1	618	40	24	
2	0	0	0	0	500	516	1	1018	40	24	
3	0	0	0	0	508	515	0	1018	40	24	
4	0	0	0	0	514	513	2	1018	40	24	
5	0	0	0	0	515	514	1	1018	40	24	
6	0	0	0	0	513	514	3	1018	40	24	
7	0	0	0	0	513	513	2	1018	40	24	
8	0	0	0	0	515	512	1	1018	40	24	
9	0	0	0	0	519	511	2	821	40	24	
10	0	0	0	0	525	508	2	448	40	24	
11	0	0	0	0	530	506	2	67	40	24	
12	0	0	0	0	529	504	1	0	40	24	
13	0	0	0	0	527	503	2	0	40	24	
14	0	0	0	0	513	507	2	0	40	24	
15	0	0	0	0	505	509	2	0	40	24	
0	0	0	0	0	500	511	3	0	40	24	
1	0	0	0	0	496	512	3	288	40	24	
2	0	0	0	0	496	513	3	1018	40	24	
3	0	0	0	0	501	513	2	1018	40	24	
4	0	0	0	0	508	510	3	1019	40	24	
5	0	0	0	0	515	509	3	1018	40	24	
6	0	0	0	0	517	509	3	1018	40	24	
7	0	0	0	0	513	511	2	1018	40	24	
8	0	0	0	0	514	511	2	1018	40	24	
9	0	0	0	0	518	508	3	1018	40	24	
10	0	0	0	0	521	508	3	756	40	24	
11	0	0	0	0	527	507	3	336	40	24	
12	0	0	0	0	527	503	1	0	40	24	
13	0	0	0	0	530	502	2	0	40	24	
14	0	0	0	0	522	504	2	0	40	24	
15	0	0	0	0	511	508	2	0	40	24	
0	0	0	0	0	502	511	3	0	40	24	
1	0	0	0	0	492	514	3	0	40	24	
2	0	0	0	0	496	517	2	385	40	24	
3	0	0	0	0	498	517	3	1018	40	24	
4	0	0	0	0	503	515	3	1018	40	24	
5	0	0	0	0	509	513	3	1018	40	24	
6	0	0	0	0	515	512	3	1018	40	24	
7	0	0	0	0	512	514	2	1018	40	24	
8	0	0	0	0	511	513	4	1019	40	24	
9	0	0	0	0	515	510	3	1018	40	24	
10	0	0	0	0	518	509	3	1018	40	24	
11	0	0	0	0	523	508	2	1018	40	24	
12	0	0	0	0	527	504	1	384	40	24	
13	0	0	0	0	527	503	1	0	40	24	
14	0	0	0	0	529	503	1	0	40	24	
15	0	0	0	0	519	505	0	0	40	24	
0	0	0	0	0	506	507	3	0	40	24	
1	0	0	0	0	498	513	0	0	40	24	
2	0	0	0	0	498	514	0	0	40	24	
3	0	0	0	0	497	516	0	550	40	24	
4	0	0	0	0	501	514	3	1018	40	24	
5	0	0	0	0	507	513	1	1019	40	24	
6	0	0	0	0	514	514	0	1018	40	24	
7	0	0	0	0	516	515	2	1018	40	24	
8	0	0	0	0	512	516	3	1019	40	24	
9	0	0	0	0	510	514	3	1018	40	24	
10	0	0	0	0	517	512	3	1018	40	24	
11	0	0	0	0	519	509	2	638	40	24	
12	0	0	0	0	524	507	1	206	40	24	
13	0	0	0	0	529	505	2	0	40	24	
14	0	0	0	0	531	504	2	0	40	24	
15	0	0	0	0	526	503	2	0	40	24	
0	0	0	0	0	513	506	3	0	40	24	
1	0	0	0	0	504	508	2	0	40	24	
2	0	0	0	0	496	512	2	0	40	24	
3	0	0	0	0	499	514	2	0	40	24	
4	0	0	0	0	497	515	3	706	40	24	
5	0	0	0	0	501	516	3	1018	40	24	
6	0	0	0	0	509	515	3	1018	40	24	
7	0	0	0	0	515	514	2	1018	40	24	
8	0	0	0	0	513	512	3	1018	40	24	
9	0	0	0	0	510	515	3	1018	40	24	
10	0	0	0	0	512	515	3	768	40	24	
11	0	0	0	0	515	514	2	429	40	24	
12	0	0	0	0	519	511	3	55	40	24	
13	0	0	0	0	525	507	2	0	40	24	
14	0	0	0	0	530	505	2	0	40	24	
15	0	0	0	0	530	505	2	0	40	24	
0	0	0	0	0	525	506	3	0	40	24	
1	0	0	0	0	510	508	3	0	40	24	
2	0	0	0	0	503	511	2	0	40	24	
3	0	0	0	0	497	515	2	0	40	24	
4	0	0	0	0	496	517	3	420	40	24	
5	0	0	0	0	497	516	3	1018	40	24	
6	0	0	0	0	500	517	3	1018	40	24	
7	0	0	0	0	512	515	2	1018	40	24	
8	0	0	0	0	514	513	3	1018	40	24	
9	0	0	0	0	512	512	2	1018	40	24	
10	0	0	0	0	512	513	3	1018	40	24	
11	0	0	0	0	513	515	2	1017	40	24	
12	0	0	0	0	519	512	2	814	40	24	
13	0	0	0	0	521	510	2	439	40	24	
14	0	0	0	0	529	508	2	32	40	24	
15	0	0	0	0	529	505	2	0	40	24	
0	0	0	0	0	528	506	3	0	40	24	
1	0	0	0	0	520	507	2	0	40	24	
2	0	0	0	0	505	509	3	0	40	24	
3	0	0	0	0	499	511	2	0	40	24	
4	0	0	0	0	497	512	3	0	40	24	
5	0	0	0	0	496	512	3	616	40	24	
6	0	0	0	0	500	514	3	1018	40	24	
7	0	0	0	0	504	514	2	1018	40	24	
8	0	0	0	0	511	512	1	1018	40	24	
9	0	0	0	0	517	511	2	1018	40	24	
10	0	0	0	0	512	512	3	1018	40	24	
11	0	0	0	0	514	512	2	1018	40	24	
12	0	0	0	0	516	509	3	1019	40	24	
13	0	0	0	0	521	505	2	721	40	24	
14	0	0	0	0	524	504	3	344	40	24	
15	0	0	0	0	527	502	2	0	40	24	
0	0	0	0	0	530	499	2	0	40	24	
1	0	0	0	0	526	499	2	0	40	24	
2	0	0	0	0	516	503	2	0	40	24	
3	0	0	0	0	504	505	2	0	40	24	
4	0	0	0	0	495	510	3	0	40	24	
5	0	0	0	0	497	511	3	0	40	24	
6	0	0	0	0	496	512	3	785	40	24	
7	0	0	0	0	504	513	2	1018	40	24	
8	0	0	0	0	509	515	3	1018	40	24	
9	0	0	0	0	514	512	3	1018	40	24	
10	0	0	0	0	515	512	3	1018	40	24	
11	0	0	0	0	510	512	2	1018	40	24	
12	0	0	0	0	513	513	3	1019	40	24	
13	0	0	0	0	518	511	3	1018	40	24	
14	0	0	0	0	521	511	3	715	40	24	
15	0	0	0	0	527	508	2	275	40	24	
0	0	0	0	0	527	507	3	0	40	24	
1	0	0	0	0	526	502	1	0	40	24	
2	0	0	0	0	523	502	2	0	40	24	
3	0	0	0	0	511	509	2	0	40	24	
4	0	0	0	0	502	511	3	0	40	24	
5	0	0	0	0	495	515	3	0	40	24	
6	0	0	0	0	499	517	2	229	40	24	
7	0	0	0	0	500	517	2	1003	40	24	
8	0	0	0	0	504	516	3	1019	40	24	
9	0	0	0	0	510	513	3	1018	40	24	
10	0	0	0	0	517	512	2	1018	40	24	
11	0	0	0	0	512	514	0	1018	40	24	
12	0	0	0	0	509	512	3	1019	40	24	
13	0	0	0	0	511	511	1	1018	40	24	
14	0	0	0	0	520	511	0	1018	40	24	
15	0	0	0	0	522	509	0	605	40	24	
0	0	0	0	0	529	505	2	145	40	24	
1	0	0	0	0	529	501	0	0	40	24	
2	0	0	0	0	530	502	2	0	40	24	
3	0	0	0	0	520	504	2	0	40	24	
4	0	0	0	0	505	504	2	0	40	24	
5	0	0	0	0	499	508	2	0	40	24	
6	0	0	0	0	496	513	2	0	40	24	
7	0	0	0	0	498	515	3	334	40	24	
8	0	0	0	0	500	514	2	1018	40	24	
9	0	0	0	0	503	513	3	1018	40	24	
10	0	0	0	0	510	513	2	1018	40	24	
11	0	0	0	0	514	511	1	1018	40	24	
12	0	0	0	0	512	511	3	1017	40	24	
13	0	0	0	0	510	513	1	1018	40	24	
14	0	0	0	0	518	512	1	761	40	24	
15	0	0	0	0	519	513	0	390	40	24	
0	0	0	0	0	523	510	3	4	40	24	
1	0	0	0	0	527	506	0	0	40	24	
2	0	0	0	0	531	504	1	0	40	24	
3	0	0	0	0	529	503	2	0	40	24	
4	0	0	0	0	515	507	3	0	40	24	
5	0	0	0	0	507	510	2	0	40	24	
6	0	0	0	0	499	513	2	0	40	24	
7	0	0	0	0	499	513	2	0	40	24	
8	0	0	0	0	499	515	1	481	40	24	
9	0	0	0	0	502	514	3	961	40	24	
10	0	0	0	0	507	513	3	1018	40	24	
11	0	0	0	0	514	513	3	1017	40	24	
12	0	0	0	0	516	512	3	841	40	24	
13	0	0	0	0	511	512	3	630	40	24	
14	0	0	0	0	512	512	3	440	40	24	
15	0	0	0	0	515	512	2	211	40	24	
0	0	0	0	0	519	508	1	0	40	24	
1	0	0	0	0	522	507	3	0	40	24	
2	0	0	0	0	526	506	3	0	40	24	
3	0	0	0	0	530	505	2	0	40	24	
4	0	0	0	0	522	503	3	0	40	24	
5	0	0	0	0	510	506	3	0	40	24	
6	0	0	0	0	502	508	3	0	40	24	
7	0	0	0	0	495	513	3	0	40	24	
8	0	0	0	0	495	514	3	0	40	24	
9	0	0	0	0	499	515	3	924	40	24	
10	0	0	0	0	504	515	3	1018	40	24	
11	0	0	0	0	511	514	3	1018	40	24	
12	0	0	0	0	515	509	3	1019	40	24	
13	0	0	0	0	512	508	3	1018	40	24	
14	0	0	0	0	513	510	1	1018	40	24	
15	0	0	0	0	514	510	1	832	40	24	
0	0	0	0	0	519	509	2	524	40	24	
1	0	0	0	0	523	506	1	193	40	24	
2	0	0	0	0	530	505	1	0	40	24	
3	0	0	0	0	531	501	0	0	40	24	
4	0	0	0	0	528	500	2	0	40	24	
5	0	0	0	0	519	500	1	0	40	24	
6	0	0	0	0	507	504	1	0	40	24	
7	0	0	0	0	501	508	1	0	40	24	
8	0	0	0	0	497	512	2	0	40	24	
9	0	0	0	0	499	512	1	584	40	24	
10	0	0	0	0	501	512	1	1018	40	24	
11	0	0	0	0	504	512	1	1018	40	24	
12	0	0	0	0	513	510	2	1019	40	24	
13	0	0	0	0	519	509	1	1018	40	24	
14	0	0	0	0	512	510	1	1018	40	24	
15	0	0	0	0	512	511	0	1018	40	24	
0	0	0	0	0	515	509	3	1017	40	24	
1	0	0	0	0	519	506	1	610	40	24	
2	0	0	0	0	523	504	0	255	40	24	
3	0	0	0	0	528	504	0	0	40	24	
4	0	0	0	0	529	500	2	0	40	24	
5	0	0	0	0	526	501	0	0	40	24	
6	0	0	0	0	513	504	0	0	40	24	
7	0	0	0	0	503	510	3	0	40	24	
8	0	0	0	0	498	511	3	0	40	24	
9	0	0	0	0	497	511	3	226	40	24	
10	0	0	0	0	495	515	2	1018	40	24	
11	0	0	0	0	504	513	2	1018	40	24	
12	0	0	0	0	508	513	4	1019	40	24	
13	0	0	0	0	514	510	2	1018	40	24	
14	0	0	0	0	515	511	3	1018	40	24	
15	0	0	0	0	511	513	3	1018	40	24	
0	0	0	0	0	512	515	2	1019	40	24	
1	0	0	0	0	517	511	3	1018	40	24	
2	0	0	0	0	522	511	2	801	40	24	
3	0	0	0	0	526	510	2	320	40	24	
4	0	0	0	0	527	509	2	0	40	24	
5	0	0	0	0	529	506	2	0	40	24	
6	0	0	0	0	523	505	2	0	40	24	
7	0	0	0	0	510	508	2	0	40	24	
8	0	0	0	0	500	512	2	0	40	24	
9	0	0	0	0	495	514	3	0	40	24	
10	0	0	0	0	497	516	2	489	40	24	
11	0	0	0	0	498	517	2	1018	40	24	
12	0	0	0	0	504	515	2	1019	40	24	
13	0	0	0	0	510	514	3	1018	40	24	
14	0	0	0	0	514	512	2	1018	40	24	
15	0	0	0	0	515	513	0	1018	40	24	
0	0	0	0	0	512	513	3	1019	40	24	
1	0	0	0	0	514	512	1	1018	40	24	
2	0	0	0	0	519	512	1	1018	40	24	
3	0	0	0	0	521	509	0	596	40	24	
4	0	0	0	0	528	507	1	118	40	24	
5	0	0	0	0	529	503	0	0	40	24	
6	0	0	0	0	528	503	1	0	40	24	
7	0	0	0	0	520	503	2	0	40	24	
8	0	0	0	0	504	506	3	0	40	24	
9	0	0	0	0	499	508	2	0	40	24	
10	0	0	0	0	496	511	2	0	40	24	
11	0	0	0	0	495	514	2	472	40	24	
12	0	0	0	0	500	512	2	1018	40	24	
13	0	0	0	0	505	513	3	1018	40	24	
14	0	0	0	0	513	514	2	1018	40	24	
15	0	0	0	0	515	513	3	1018	40	24	
0	0	0	0	0	512	513	1	1018	40	24	
1	0	0	0	0	511	514	3	1018	40	24	
2	0	0	0	0	515	513	3	875	40	24	
3	0	0	0	0	519	511	0	576	40	24	
4	0	0	0	0	524	508	2	204	40	24	
5	0	0	0	0	530	505	1	0	40	24	
6	0	0	0	0	534	505	1	0	40	24	
7	0	0	0	0	528	503	0	0	40	24	
8	0	0	0	0	515	504	3	0	40	24	
9	0	0	0	0	503	506	0	0	40	24	
10	0	0	0	0	499	510	0	0	40	24	
11	0	0	0	0	495	512	0	0	40	24	
12	0	0	0	0	498	515	3	705	40	24	
13	0	0	0	0	502	516	1	1018	40	24	
14	0	0	0	0	510	515	1	1018	40	24	
15	0	0	0	0	515	513	1	1018	40	24	
0	0	0	0	0	513	511	3	1019	40	24	
1	0	0	0	0	513	511	0	1018	40	24	
2	0	0	0	0	513	511	1	1018	40	24	
3	0	0	0	0	517	510	0	641	40	24	
4	0	0	0	0	520	507	2	268	40	24	
5	0	0	0	0	524	505	1	0	40	24	
6	0	0	0	0	527	505	2	0	40	24	
7	0	0	0	0	529	502	2	0	40	24	
8	0	0	0	0	524	504	3	0	40	24	
9	0	0	0	0	510	506	2	0	40	24	
10	0	0	0	0	501	508	2	0	40	24	
11	0	0	0	0	495	512	2	0	40	24	
12	0	0	0	0	495	513	3	0	40	24	
13	0	0	0	0	500	513	3	796	40	24	
14	0	0	0	0	505	513	3	1018	40	24	
15	0	0	0	0	510	514	2	1018	40	24	
0	0	0	0	0	517	512	3	1019	40	24	
1	0	0	0	0	513	511	2	1018	40	24	
2	0	0	0	0	510	511	1	1018	40	24	
3	0	0	0	0	513	512	1	1017	40	24	
4	0	0	0	0	518	509	2	690	40	24	
5	0	0	0	0	520	506	1	347	40	24	
6	0	0	0	0	527	504	1	1	40	24	
7	0	0	0	0	529	504	0	0	40	24	
8	0	0	0	0	529	502	3	0	40	24	
9	0	0	0	0	520	502	0	0	40	24	
10	0	0	0	0	506	505	0	0	40	24	
11	0	0	0	0	499	510	0	0	40	24	
12	0	0	0	0	496	511	2	0	40	24	
13	0	0	0	0	499	513	0	579	40	24	
14	0	0	0	0	501	514	1	1018	40	24	
15	0	0	0	0	505	514	0	1018	40	24	
0	0	0	0	0	512	512	3	1019	40	24	
1	0	0	0	0	515	513	1	1018	40	24	
2	0	0	0	0	515	515	3	1018	40	24	
3	0	0	0	0	513	515	2	1018	40	24	
4	0	0	0	0	513	514	1	1018	40	24	
5	0	0	0	0	519	512	2	734	40	24	
6	0	0	0	0	523	508	2	321	40	24	
7	0	0	0	0	526	505	2	0	40	24	
8	0	0	0	0	528	503	1	0	40	24	
9	0	0	0	0	524	503	2	0	40	24	
10	0	0	0	0	513	505	1	0	40	24	
11	0	0	0	0	502	508	1	0	40	24	
12	0	0	0	0	497	511	2	0	40	24	
13	0	0	0	0	496	514	1	0	40	24	
14	0	0	0	0	496	515	1	633	40	24	
15	0	0	0	0	503	516	1	1018	40	24	
0	0	0	0	0	508	515	3	1019	40	24	
1	0	0	0	0	515	513	1	1018	40	24	
2	0	0	0	0	513	512	0	1018	40	24	
3	0	0	0	0	510	513	0	1018	40	24	
4	0	0	0	0	512	511	2	1018	40	24	
5	0	0	0	0	518	511	0	1018	40	24	
6	0	0	0	0	521	509	1	611	40	24	
7	0	0	0	0	527	505	0	185	40	24	
8	0	0	0	0	528	503	3	0	40	24	
9	0	0	0	0	529	503	0	0	40	24	
10	0	0	0	0	524	503	0	0	40	24	
11	0	0	0	0	512	508	0	0	40	24	
12	0	0	0	0	503	510	3	0	40	24	
13	0	0	0	0	495	513	1	0	40	24	
14	0	0	0	0	496	515	0	265	40	24	
15	0	0	0	0	497	517	0	974	40	24	
0	0	0	0	0	503	516	2	1017	40	24	
1	0	0	0	0	511	515	0	1018	40	24	
2	0	0	0	0	514	513	0	1018	40	24	
3	0	0	0	0	511	511	0	1018	40	24	
4	0	0	0	0	508	512	3	1018	40	24	
5	0	0	0	0	513	511	1	1018	40	24	
6	0	0	0	0	518	508	0	856	40	24	
7	0	0	0	0	521	505	0	553	40	24	
8	0	0	0	0	527	501	1	180	40	24	
9	0	0	0	0	528	499	0	0	40	24	
10	0	0	0	0	529	499	0	0	40	24	
11	0	0	0	0	522	503	0	0	40	24	
12	0	0	0	0	507	505	2	0	40	24	
13	0	0	0	0	497	506	0	0	40	24	
14	0	0	0	0	497	509	1	0	40	24	
15	0	0	0	0	495	511	1	387	40	24	
0	0	0	0	0	501	512	3	1018	40	24	
1	0	0	0	0	505	512	3	1018	40	24	
2	0	0	0	0	511	512	2	1018	40	24	
3	0	0	0	0	515	511	2	1018	40	24	
4	0	0	0	0	512	512	3	1018	40	24	
5	0	0	0	0	512	512	2	1016	40	24	
6	0	0	0	0	515	510	3	799	40	24	
7	0	0	0	0	518	509	2	610	40	24	
8	0	0	0	0	523	507	2	329	40	24	
9	0	0	0	0	530	505	2	0	40	24	
10	0	0	0	0	533	505	2	0	40	24	
11	0	0	0	0	526	504	2	0	40	24	
12	0	0	0	0	515	506	2	0	40	24	
13	0	0	0	0	504	506	3	0	40	24	
14	0	0	0	0	497	509	3	0	40	24	
15	0	0	0	0	497	511	3	356	40	24	
0	0	0	0	0	495	514	3	1019	40	24	
1	0	0	0	0	504	514	2	1018	40	24	
2	0	0	0	0	509	512	3	1018	40	24	
3	0	0	0	0	515	513	2	1018	40	24	
4	0	0	0	0	516	514	2	1019	40	24	
5	0	0	0	0	510	514	2	1018	40	24	
6	0	0	0	0	512	513	0	1018	40	24	
7	0	0	0	0	516	512	0	1017	40	24	
8	0	0	0	0	522	511	3	617	40	24	
9	0	0	0	0	525	509	1	229	40	24	
10	0	0	0	0	527	505	1	0	40	24	
11	0	0	0	0	529	505	0	0	40	24	
12	0	0	0	0	525	504	3	0	40	24	
13	0	0	0	0	512	508	1	0	40	24	
14	0	0	0	0	501	513	1	0	40	24	
15	0	0	0	0	494	516	1	0	40	24	
0	0	0	0	0	496	518	2	376	40	24	
1	0	0	0	0	497	517	1	1018	40	24	
2	0	0	0	0	504	516	1	1018	40	24	
3	0	0	0	0	512	514	1	1018	40	24	
4	0	0	0	0	515	511	3	1019	40	24	
5	0	0	0	0	513	509	0	1018	40	24	
6	0	0	0	0	511	510	1	1018	40	24	
7	0	0	0	0	513	511	0	1017	40	24	
8	0	0	0	0	519	509	2	1017	40	24	
9	0	0	0	0	521	505	1	500	40	24	
10	0	0	0	0	526	502	0	24	40	24	
11	0	0	0	0	529	500	0	0	40	24	
12	0	0	0	0	529	500	1	0	40	24	
13	0	0	0	0	520	503	0	0	40	24	
14	0	0	0	0	506	506	3	0	40	24	
15	0	0	0	0	499	511	1	0	40	24	
0	0	0	0	0	496	512	3	0	40	24	
1	0	0	0	0	494	514	3	223	40	24	
2	0	0	0	0	504	515	3	903	40	24	
3	0	0	0	0	503	515	3	1018	40	24	
4	0	0	0	0	511	515	2	1019	40	24	
5	0	0	0	0	515	513	2	1018	40	24	
6	0	0	0	0	512	514	1	1018	40	24	
7	0	0	0	0	513	516	1	851	40	24	
8	0	0	0	0	512	514	2	652	40	24	
9	0	0	0	0	520	511	0	428	40	24	
10	0	0	0	0	525	511	0	143	40	24	
11	0	0	0	0	528	508	1	0	40	24	
12	0	0	0	0	530	504	2	0	40	24	
13	0	0	0	0	526	504	1	0	40	24	
14	0	0	0	0	516	505	2	0	40	24	
15	0	0	0	0	501	507	2	0	40	24	
0	0	0	0	0	497	510	3	0	40	24	
1	0	0	0	0	498	511	3	0	40	24	
2	0	0	0	0	498	512	3	1018	40	24	
3	0	0	0	0	502	515	2	1018	40	24	
4	0	0	0	0	509	514	4	1019	40	24	
5	0	0	0	0	514	512	3	1018	40	24	
6	0	0	0	0	515	512	3	1018	40	24	
7	0	0	0	0	511	513	2	1018	40	24	
8	0	0	0	0	515	512	3	1019	40	24	
9	0	0	0	0	518	511	2	1018	40	24	
10	0	0	0	0	522	510	1	809	40	24	
11	0	0	0	0	527	507	1	382	40	24	
12	0	0	0	0	529	504	3	0	40	24	
13	0	0	0	0	531	501	1	0	40	24	
14	0	0	0	0	524	503	0	0	40	24	
15	0	0	0	0	508	507	0	0	40	24	
0	0	0	0	0	505	510	3	0	40	24	
1	0	0	0	0	494	512	0	0	40	24	
2	0	0	0	0	496	515	2	336	40	24	
3	0	0	0	0	497	515	3	1017	40	24	
4	0	0	0	0	504	515	4	1019	40	24	
5	0	0	0	0	510	513	3	1018	40	24	
6	0	0	0	0	515	510	3	1018	40	24	
7	0	0	0	0	514	510	2	1018	40	24	
8	0	0	0	0	512	509	3	1018	40	24	
9	0	0	0	0	514	510	3	1018	40	24	
10	0	0	0	0	521	510	2	1018	40	24	
11	0	0	0	0	521	508	1	560	40	24	
12	0	0	0	0	528	506	2	98	40	24	
13	0	0	0	0	528	503	1	0	40	24	
14	0	0	0	0	528	501	1	0	40	24	
15	0	0	0	0	521	504	0	0	40	24	
0	0	0	0	0	505	507	2	0	40	24	
1	0	0	0	0	501	510	0	0	40	24	
2	0	0	0	0	497	515	0	0	40	24	
3	0	0	0	0	496	517	1	560	40	24	
4	0	0	0	0	502	516	3	1019	40	24	
5	0	0	0	0	505	515	1	1018	40	24	
6	0	0	0	0	512	515	2	1018	40	24	
7	0	0	0	0	515	512	2	1018	40	24	
8	0	0	0	0	512	512	4	1019	40	24	
9	0	0	0	0	513	512	2	1018	40	24	
10	0	0	0	0	515	509	3	1018	40	24	
11	0	0	0	0	519	509	2	1018	40	24	
12	0	0	0	0	523	505	2	523	40	24	
13	0	0	0	0	527	505	2	76	40	24	
14	0	0	0	0	530	505	2	0	40	24	
15	0	0	0	0	527	504	2	0	40	24	
0	0	0	0	0	514	507	2	0	40	24	
1	0	0	0	0	502	509	3	0	40	24	
2	0	0	0	0	496	514	1	0	40	24	
3	0	0	0	0	497	518	1	0	40	24	
4	0	0	0	0	498	518	3	739	40	24	
5	0	0	0	0	504	518	0	1018	40	24	
6	0	0	0	0	509	517	1	1018	40	24	
7	0	0	0	0	513	516	0	1018	40	24	
8	0	0	0	0	515	514	2	1019	40	24	
9	0	0	0	0	513	513	1	1018	40	24	
10	0	0	0	0	512	513	2	1018	40	24	
11	0	0	0	0	514	512	2	693	40	24	
12	0	0	0	0	521	509	3	352	40	24	
13	0	0	0	0	526	508	2	0	40	24	
14	0	0	0	0	527	504	3	0	40	24	
15	0	0	0	0	528	504	1	0	40	24	
0	0	0	0	0	524	502	1	0	40	24	
1	0	0	0	0	509	504	3	0	40	24	
2	0	0	0	0	503	508	2	0	40	24	
3	0	0	0	0	496	514	2	0	40	24	
4	0	0	0	0	497	515	3	0	40	24	
5	0	0	0	0	500	517	3	761	40	24	
6	0	0	0	0	500	517	3	1018	40	24	
7	0	0	0	0	507	516	2	1018	40	24	
8	0	0	0	0	515	515	3	1019	40	24	
9	0	0	0	0	512	512	2	1018	40	24	
10	0	0	0	0	510	513	3	1018	40	24	
11	0	0	0	0	512	511	2	657	40	24	
12	0	0	0	0	517	508	1	395	40	24	
13	0	0	0	0	521	507	0	120	40	24	
14	0	0	0	0	527	506	3	0	40	24	
15	0	0	0	0	531	505	2	0	40	24	
0	0	0	0	0	528	505	3	0	40	24	
1	0	0	0	0	520	506	1	0	40	24	
2	0	0	0	0	508	508	1	0	40	24	
3	0	0	0	0	499	510	2	0	40	24	
4	0	0	0	0	498	511	3	0	40	24	
5	0	0	0	0	497	514	3	275	40	24	
6	0	0	0	0	500	515	3	1006	40	24	
7	0	0	0	0	505	513	2	1018	40	24	
8	0	0	0	0	511	511	2	1018	40	24	
9	0	0	0	0	517	510	2	1018	40	24	
10	0	0	0	0	513	510	3	1018	40	24	
11	0	0	0	0	511	511	2	727	40	24	
12	0	0	0	0	515	509	1	443	40	24	
13	0	0	0	0	517	507	2	207	40	24	
14	0	0	0	0	523	506	1	0	40	24	
15	0	0	0	0	527	504	1	0	40	24	
0	0	0	0	0	528	501	3	0	40	24	
1	0	0	0	0	527	499	1	0	40	24	
2	0	0	0	0	515	503	1	0	40	24	
3	0	0	0	0	504	506	0	0	40	24	
4	0	0	0	0	496	509	3	0	40	24	
5	0	0	0	0	498	512	0	0	40	24	
6	0	0	0	0	497	516	1	553	40	24	
7	0	0	0	0	504	517	0	1018	40	24	
8	0	0	0	0	508	517	1	1018	40	24	
9	0	0	0	0	514	515	3	1018	40	24	
10	0	0	0	0	516	515	2	1018	40	24	
11	0	0	0	0	511	516	2	1018	40	24	
12	0	0	0	0	514	515	2	1018	40	24	
13	0	0	0	0	518	513	3	805	40	24	
14	0	0	0	0	521	513	1	495	40	24	
15	0	0	0	0	525	510	1	139	40	24	
0	0	0	0	0	530	509	2	0	40	24	
1	0	0	0	0	529	504	1	0	40	24	
2	0	0	0	0	524	505	0	0	40	24	
3	0	0	0	0	511	507	0	0	40	24	
4	0	0	0	0	502	509	3	0	40	24	
5	0	0	0	0	496	511	0	0	40	24	
6	0	0	0	0	496	515	1	379	40	24	
7	0	0	0	0	500	516	1	1017	40	24	
8	0	0	0	0	505	516	3	1018	40	24	
9	0	0	0	0	512	516	1	1018	40	24	
10	0	0	0	0	515	513	3	1018	40	24	
11	0	0	0	0	511	515	2	1018	40	24	
12	0	0	0	0	512	517	3	1017	40	24	
13	0	0	0	0	511	514	3	776	40	24	
14	0	0	0	0	518	511	2	510	40	24	
15	0	0	0	0	522	510	2	195	40	24	
0	0	0	0	0	529	506	3	0	40	24	
1	0	0	0	0	528	505	2	0	40	24	
2	0	0	0	0	530	504	3	0	40	24	
3	0	0	0	0	519	505	2	0	40	24	
4	0	0	0	0	507	508	3	0	40	24	
5	0	0	0	0	500	509	3	0	40	24	
6	0	0	0	0	498	511	3	0	40	24	
7	0	0	0	0	499	515	3	688	40	24	
8	0	0	0	0	499	514	3	1019	40	24	
9	0	0	0	0	504	513	3	1018	40	24	
10	0	0	0	0	513	513	3	1018	40	24	
11	0	0	0	0	515	512	3	1018	40	24	
12	0	0	0	0	514	513	3	1019	40	24	
13	0	0	0	0	511	513	3	1018	40	24	
14	0	0	0	0	513	512	1	735	40	24	
15	0	0	0	0	519	512	0	437	40	24	
0	0	0	0	0	524	512	2	123	40	24	
1	0	0	0	0	527	507	1	0	40	24	
2	0	0	0	0	531	506	0	0	40	24	
3	0	0	0	0	525	507	0	0	40	24	
4	0	0	0	0	515	508	3	0	40	24	
5	0	0	0	0	504	510	1	0	40	24	
6	0	0	0	0	497	513	3	0	40	24	
7	0	0	0	0	497	514	2	0	40	24	
8	0	0	0	0	497	516	3	927	40	24	
9	0	0	0	0	502	513	2	1018	40	24	
10	0	0	0	0	508	512	3	1018	40	24	
11	0	0	0	0	512	511	2	1018	40	24	
12	0	0	0	0	514	509	3	1018	40	24	
13	0	0	0	0	510	509	3	1018	40	24	
14	0	0	0	0	512	511	2	1018	40	24	
15	0	0	0	0	516	509	2	1018	40	24	
0	0	0	0	0	521	505	3	738	40	24	
1	0	0	0	0	529	503	3	328	40	24	
2	0	0	0	0	526	499	1	0	40	24	
3	0	0	0	0	530	498	0	0	40	24	
4	0	0	0	0	522	500	2	0	40	24	
5	0	0	0	0	510	504	1	0	40	24	
6	0	0	0	0	503	507	0	0	40	24	
7	0	0	0	0	497	510	0	0	40	24	
8	0	0	0	0	495	511	1	344	40	24	
9	0	0	0	0	498	513	1	1017	40	24	
10	0	0	0	0	503	512	1	1018	40	24	
11	0	0	0	0	509	513	3	1018	40	24	
12	0	0	0	0	516	511	3	1019	40	24	
13	0	0	0	0	515	511	2	1018	40	24	
14	0	0	0	0	512	513	3	1018	40	24	
15	0	0	0	0	515	515	3	1017	40	24	
0	0	0	0	0	519	512	3	660	40	24	
1	0	0	0	0	522	510	3	284	40	24	
2	0	0	0	0	528	508	1	0	40	24	
3	0	0	0	0	530	506	1	0	40	24	
4	0	0	0	0	527	504	3	0	40	24	
5	0	0	0	0	522	504	1	0	40	24	
6	0	0	0	0	505	507	1	0	40	24	
7	0	0	0	0	500	511	0	0	40	24	
8	0	0	0	0	497	512	3	0	40	24	
9	0	0	0	0	498	514	1	763	40	24	
10	0	0	0	0	501	516	1	1018	40	24	
11	0	0	0	0	504	515	0	1018	40	24	
12	0	0	0	0	511	515	2	1019	40	24	
13	0	0	0	0	515	512	1	1018	40	24	
14	0	0	0	0	511	514	1	1018	40	24	
15	0	0	0	0	515	512	0	1018	40	24	
0	0	0	0	0	516	508	3	1017	40	24	
1	0	0	0	0	517	507	0	1018	40	24	
2	0	0	0	0	523	505	0	590	40	24	
3	0	0	0	0	526	505	0	156	40	24	
4	0	0	0	0	528	502	2	0	40	24	
5	0	0	0	0	525	502	0	0	40	24	
6	0	0	0	0	515	505	0	0	40	24	
7	0	0	0	0	504	506	0	0	40	24	
8	0	0	0	0	498	509	2	0	40	24	
9	0	0	0	0	496	511	1	0	40	24	
10	0	0	0	0	496	512	2	723	40	24	
11	0	0	0	0	504	513	1	1018	40	24	
12	0	0	0	0	507	513	2	1018	40	24	
13	0	0	0	0	513	513	1	1018	40	24	
14	0	0	0	0	515	513	3	1018	40	24	
15	0	0	0	0	510	513	2	1018	40	24	
0	0	0	0	0	512	513	1	1017	40	24	
1	0	0	0	0	517	511	3	1018	40	24	
2	0	0	0	0	521	509	3	760	40	24	
3	0	0	0	0	526	508	2	349	40	24	
4	0	0	0	0	528	506	3	0	40	24	
5	0	0	0	0	529	503	2	0	40	24	
6	0	0	0	0	525	504	3	0	40	24	
7	0	0	0	0	512	509	2	0	40	24	
8	0	0	0	0	503	510	1	0	40	24	
9	0	0	0	0	495	512	3	0	40	24	
10	0	0	0	0	495	515	3	296	40	24	
11	0	0	0	0	499	515	2	909	40	24	
12	0	0	0	0	504	515	2	1018	40	24	
13	0	0	0	0	507	512	2	1018	40	24	
14	0	0	0	0	513	511	3	1018	40	24	
15	0	0	0	0	513	511	2	1018	40	24	
0	0	0	0	0	514	510	2	1018	40	24	
1	0	0	0	0	514	511	2	1018	40	24	
2	0	0	0	0	520	512	3	787	40	24	
3	0	0	0	0	521	510	2	459	40	24	
4	0	0	0	0	527	507	2	87	40	24	
5	0	0	0	0	527	505	1	0	40	24	
6	0	0	0	0	528	503	1	0	40	24	
7	0	0	0	0	519	505	0	0	40	24	
8	0	0	0	0	505	505	3	0	40	24	
9	0	0	0	0	497	509	0	0	40	24	
10	0	0	0	0	497	512	0	0	40	24	
11	0	0	0	0	496	515	1	338	40	24	
12	0	0	0	0	501	514	3	1018	40	24	
13	0	0	0	0	504	514	1	1018	40	24	
14	0	0	0	0	511	512	2	1018	40	24	
15	0	0	0	0	515	510	2	1018	40	24	
0	0	0	0	0	513	513	4	1019	40	24	
1	0	0	0	0	512	510	2	1018	40	24	
2	0	0	0	0	515	507	3	1018	40	24	
3	0	0	0	0	520	508	2	720	40	24	
4	0	0	0	0	524	506	2	374	40	24	
5	0	0	0	0	527	504	2	11	40	24	
6	0	0	0	0	531	503	1	0	40	24	
7	0	0	0	0	527	503	0	0	40	24	
8	0	0	0	0	515	504	2	0	40	24	
9	0	0	0	0	504	506	0	0	40	24	
10	0	0	0	0	499	511	0	0	40	24	
11	0	0	0	0	498	514	0	0	40	24	
12	0	0	0	0	495	515	2	841	40	24	
13	0	0	0	0	501	515	1	1018	40	24	
14	0	0	0	0	505	514	3	1018	40	24	
15	0	0	0	0	514	512	2	1018	40	24	
0	0	0	0	0	514	510	1	1018	40	24	
1	0	0	0	0	512	512	3	1018	40	24	
2	0	0	0	0	512	511	2	1018	40	24	
3	0	0	0	0	516	511	2	765	40	24	
4	0	0	0	0	521	511	2	407	40	24	
5	0	0	0	0	526	506	1	0	40	24	
6	0	0	0	0	528	505	1	0	40	24	
7	0	0	0	0	531	503	0	0	40	24	
8	0	0	0	0	524	501	1	0	40	24	
9	0	0	0	0	510	505	0	0	40	24	
10	0	0	0	0	503	510	1	0	40	24	
11	0	0	0	0	495	513	3	0	40	24	
12	0	0	0	0	495	514	1	0	40	24	
13	0	0	0	0	498	515	3	982	40	24	
14	0	0	0	0	503	516	3	1018	40	24	
15	0	0	0	0	513	516	3	1018	40	24	
0	0	0	0	0	514	513	2	1019	40	24	
1	0	0	0	0	513	514	1	1018	40	24	
2	0	0	0	0	512	513	1	1018	40	24	
3	0	0	0	0	514	515	1	1017	40	24	
4	0	0	0	0	517	513	1	827	40	24	
5	0	0	0	0	524	509	0	448	40	24	
6	0	0	0	0	530	506	0	71	40	24	
7	0	0	0	0	529	502	0	0	40	24	
8	0	0	0	0	528	502	3	0	40	24	
9	0	0	0	0	518	502	0	0	40	24	
10	0	0	0	0	505	506	1	0	40	24	
11	0	0	0	0	496	511	0	0	40	24	
12	0	0	0	0	496	512	3	0	40	24	
13	0	0	0	0	496	515	1	0	40	24	
14	0	0	0	0	499	515	2	927	40	24	
15	0	0	0	0	505	514	3	1018	40	24	
0	0	0	0	0	513	514	4	1019	40	24	
1	0	0	0	0	516	512	1	1018	40	24	
2	0	0	0	0	512	513	3	1018	40	24	
3	0	0	0	0	510	512	2	1017	40	24	
4	0	0	0	0	515	512	3	616	40	24	
5	0	0	0	0	519	510	2	333	40	24	
6	0	0	0	0	523	507	2	26	40	24	
7	0	0	0	0	529	506	2	0	40	24	
8	0	0	0	0	530	505	3	0	40	24	
9	0	0	0	0	527	503	2	0	40	24	
10	0	0	0	0	512	506	2	0	40	24	
11	0	0	0	0	505	510	1	0	40	24	
12	0	0	0	0	499	512	2	0	40	24	
13	0	0	0	0	496	512	1	0	40	24	
14	0	0	0	0	497	513	1	1018	40	24	
15	0	0	0	0	501	512	0	1018	40	24	
0	0	0	0	0	507	512	4	1019	40	24	
1	0	0	0	0	512	511	0	1018	40	24	
2	0	0	0	0	514	510	0	1018	40	24	
3	0	0	0	0	511	513	2	1018	40	24	
4	0	0	0	0	512	514	3	1019	40	24	
5	0	0	0	0	517	512	2	1018	40	24	
6	0	0	0	0	520	511	3	1018	40	24	
7	0	0	0	0	526	510	3	407	40	24	
8	0	0	0	0	527	508	2	0	40	24	
9	0	0	0	0	529	505	2	0	40	24	
10	0	0	0	0	525	504	1	0	40	24	
11	0	0	0	0	512	508	0	0	40	24	
12	0	0	0	0	503	510	2	0	40	24	
13	0	0	0	0	496	510	1	0	40	24	
14	0	0	0	0	497	513	3	683	40	24	
15	0	0	0	0	497	515	2	1018	40	24	
0	0	0	0	0	499	515	2	1018	40	24	
1	0	0	0	0	509	512	3	1018	40	24	
2	0	0	0	0	516	511	3	1018	40	24	
3	0	0	0	0	514	511	2	1018	40	24	
4	0	0	0	0	512	512	3	1019	40	24	
5	0	0	0	0	513	510	3	1018	40	24	
6	0	0	0	0	520	508	3	1018	40	24	
7	0	0	0	0	522	506	2	686	40	24	
8	0	0	0	0	528	502	1	209	40	24	
9	0	0	0	0	528	500	2	0	40	24	
10	0	0	0	0	529	499	2	0	40	24	
11	0	0	0	0	520	502	2	0	40	24	
12	0	0	0	0	507	507	3	0	40	24	
13	0	0	0	0	500	509	2	0	40	24	
14	0	0	0	0	495	514	3	0	40	24	
15	0	0	0	0	494	516	2	610	40	24	
0	0	0	0	0	501	518	3	1019	40	24	
1	0	0	0	0	504	515	3	1018	40	24	
2	0	0	0	0	512	514	2	1018	40	24	
3	0	0	0	0	515	511	2	1018	40	24	
4	0	0	0	0	514	514	4	1019	40	24	
5	0	0	0	0	513	516	3	1018	40	24	
6	0	0	0	0	515	515	3	1018	40	24	
7	0	0	0	0	519	515	2	702	40	24	
8	0	0	0	0	524	513	3	375	40	24	
9	0	0	0	0	525	509	2	3	40	24	
10	0	0	0	0	530	507	2	0	40	24	
11	0	0	0	0	528	504	2	0	40	24	
12	0	0	0	0	515	506	1	0	40	24	
13	0	0	0	0	503	510	2	0	40	24	
14	0	0	0	0	496	513	2	0	40	24	
15	0	0	0	0	495	514	2	0	40	24	
0	0	0	0	0	496	516	3	550	40	24	
1	0	0	0	0	501	515	3	1018	40	24	
2	0	0	0	0	508	513	3	1018	40	24	
3	0	0	0	0	515	512	2	1018	40	24	
4	0	0	0	0	515	509	3	1019	40	24	
5	0	0	0	0	512	511	1	1018	40	24	
6	0	0	0	0	512	513	2	1018	40	24	
7	0	0	0	0	515	510	2	1017	40	24	
8	0	0	0	0	523	506	3	564	40	24	
9	0	0	0	0	525	503	1	224	40	24	
10	0	0	0	0	528	503	0	0	40	24	
11	0	0	0	0	529	500	0	0	40	24	
12	0	0	0	0	524	502	3	0	40	24	
13	0	0	0	0	509	505	1	0	40	24	
14	0	0	0	0	501	509	3	0	40	24	
15	0	0	0	0	493	513	3	0	40	24	
0	0	0	0	0	496	513	3	0	40	24	
1	0	0	0	0	498	513	3	1018	40	24	
2	0	0	0	0	504	514	3	1018	40	24	
3	0	0	0	0	510	513	2	1018	40	24	
4	0	0	0	0	515	512	3	1019	40	24	
5	0	0	0	0	515	512	2	1018	40	24	
6	0	0	0	0	512	512	2	1018	40	24	
7	0	0	0	0	515	513	2	1017	40	24	
8	0	0	0	0	519	511	4	1019	40	24	
9	0	0	0	0	523	508	2	549	40	24	
10	0	0	0	0	528	505	2	119	40	24	
11	0	0	0	0	529	503	2	0	40	24	
12	0	0	0	0	530	503	3	0	40	24	
13	0	0	0	0	520	504	2	0	40	24	
14	0	0	0	0	507	509	2	0	40	24	
15	0	0	0	0	500	514	2	0	40	24	
0	0	0	0	0	494	517	1	0	40	24	
1	0	0	0	0	495	517	3	379	40	24	
2	0	0	0	0	497	515	3	1018	40	24	
3	0	0	0	0	506	514	2	1018	40	24	
4	0	0	0	0	512	511	3	1018	40	24	
5	0	0	0	0	515	511	1	1018	40	24	
6	0	0	0	0	513	513	1	1018	40	24	
7	0	0	0	0	512	513	0	1018	40	24	
8	0	0	0	0	515	510	3	816	40	24	
9	0	0	0	0	520	507	0	476	40	24	
10	0	0	0	0	524	508	2	113	40	24	
11	0	0	0	0	527	507	2	0	40	24	
12	0	0	0	0	530	505	2	0	40	24	
13	0	0	0	0	526	505	2	0	40	24	
14	0	0	0	0	513	507	2	0	40	24	
15	0	0	0	0	504	510	3	0	40	24	
0	0	0	0	0	495	512	3	0	40	24	
1	0	0	0	0	496	515	2	0	40	24	
2	0	0	0	0	496	517	1	1018	40	24	
3	0	0	0	0	503	516	0	1018	40	24	
4	0	0	0	0	510	515	3	1019	40	24	
5	0	0	0	0	515	512	1	1018	40	24	
6	0	0	0	0	517	512	0	1018	40	24	
7	0	0	0	0	510	513	0	1018	40	24	
8	0	0	0	0	512	513	3	1019	40	24	
9	0	0	0	0	517	510	0	1018	40	24	
10	0	0	0	0	520	509	2	812	40	24	
11	0	0	0	0	528	507	2	398	40	24	
12	0	0	0	0	525	503	1	0	40	24	
13	0	0	0	0	528	503	2	0	40	24	
14	0	0	0	0	522	502	2	0	40	24	
15	0	0	0	0	510	505	2	0	40	24	
0	0	0	0	0	504	506	1	0	40	24	
1	0	0	0	0	496	511	3	0	40	24	
2	0	0	0	0	495	514	1	285	40	24	
3	0	0	0	0	497	515	1	920	40	24	
4	0	0	0	0	504	515	3	1019	40	24	
5	0	0	0	0	510	514	1	1018	40	24	
6	0	0	0	0	515	511	1	1018	40	24	
7	0	0	0	0	513	511	0	1018	40	24	
8	0	0	0	0	511	512	2	1018	40	24	
9	0	0	0	0	516	513	0	1018	40	24	
10	0	0	0	0	519	511	3	887	40	24	
11	0	0	0	0	522	510	2	505	40	24	
12	0	0	0	0	527	508	1	114	40	24	
13	0	0	0	0	529	506	2	0	40	24	
14	0	0	0	0	532	506	3	0	40	24	
15	0	0	0	0	519	505	2	0	40	24	
0	0	0	0	0	506	510	2	0	40	24	
1	0	0	0	0	499	510	1	0	40	24	
2	0	0	0	0	498	514	1	0	40	24	
3	0	0	0	0	496	516	1	504	40	24	
4	0	0	0	0	499	516	3	1019	40	24	
5	0	0	0	0	505	514	1	1018	40	24	
6	0	0	0	0	513	513	1	1018	40	24	
7	0	0	0	0	514	511	1	1018	40	24	
8	0	0	0	0	512	513	4	1018	40	24	
9	0	0	0	0	510	511	3	1018	40	24	
10	0	0	0	0	514	508	2	763	40	24	
11	0	0	0	0	519	507	2	462	40	24	
12	0	0	0	0	524	506	1	118	40	24	
13	0	0	0	0	528	504	2	0	40	24	
14	0	0	0	0	531	504	2	0	40	24	
15	0	0	0	0	527	504	1	0	40	24	
0	0	0	0	0	516	506	2	0	40	24	
1	0	0	0	0	504	507	1	0	40	24	
2	0	0	0	0	499	511	0	0	40	24	
3	0	0	0	0	496	513	0	0	40	24	
4	0	0	0	0	496	512	3	350	40	24	
5	0	0	0	0	502	512	1	939	40	24	
6	0	0	0	0	507	512	3	1018	40	24	
7	0	0	0	0	513	512	2	1018	40	24	
8	0	0	0	0	513	510	3	1019	40	24	
9	0	0	0	0	510	510	2	875	40	24	
10	0	0	0	0	510	511	3	711	40	24	
11	0	0	0	0	512	512	2	494	40	24	
12	0	0	0	0	519	511	2	223	40	24	
13	0	0	0	0	524	507	1	0	40	24	
14	0	0	0	0	526	505	1	0	40	24	
15	0	0	0	0	526	503	0	0	40	24	
0	0	0	0	0	524	503	2	0	40	24	
1	0	0	0	0	513	505	0	0	40	24	
2	0	0	0	0	502	508	0	0	40	24	
3	0	0	0	0	495	511	1	0	40	24	
4	0	0	0	0	496	512	2	0	40	24	
5	0	0	0	0	497	513	3	871	40	24	
6	0	0	0	0	502	515	3	1018	40	24	
7	0	0	0	0	512	512	2	1018	40	24	
8	0	0	0	0	516	510	4	1019	40	24	
9	0	0	0	0	514	510	2	1018	40	24	
10	0	0	0	0	512	510	2	1018	40	24	
11	0	0	0	0	513	509	1	1017	40	24	
12	0	0	0	0	519	507	2	720	40	24	
13	0	0	0	0	522	504	1	391	40	24	
14	0	0	0	0	529	504	0	34	40	24	
15	0	0	0	0	530	504	0	0	40	24	
0	0	0	0	0	529	502	1	0	40	24	
1	0	0	0	0	522	504	1	0	40	24	
2	0	0	0	0	507	506	3	0	40	24	
3	0	0	0	0	500	509	2	0	40	24	
4	0	0	0	0	496	511	3	0	40	24	
5	0	0	0	0	496	514	3	481	40	24	
6	0	0	0	0	501	515	3	1018	40	24	
7	0	0	0	0	505	513	3	1018	40	24	
8	0	0	0	0	512	513	2	1019	40	24	
9	0	0	0	0	515	511	3	1018	40	24	
10	0	0	0	0	513	513	2	1018	40	24	
11	0	0	0	0	513	513	1	1018	40	24	
12	0	0	0	0	511	509	2	1018	40	24	
13	0	0	0	0	517	509	0	702	40	24	
14	0	0	0	0	523	507	0	311	40	24	
15	0	0	0	0	528	507	0	0	40	24	
0	0	0	0	0	531	504	3	0	40	24	
1	0	0	0	0	525	502	1	0	40	24	
2	0	0	0	0	514	506	2	0	40	24	
3	0	0	0	0	504	508	2	0	40	24	
4	0	0	0	0	498	508	2	0	40	24	
5	0	0	0	0	499	509	2	0	40	24	
6	0	0	0	0	498	512	3	997	40	24	
7	0	0	0	0	502	514	2	1018	40	24	
8	0	0	0	0	508	511	3	1019	40	24	
9	0	0	0	0	514	509	3	1018	40	24	
10	0	0	0	0	514	511	1	1018	40	24	
11	0	0	0	0	512	513	1	1018	40	24	
12	0	0	0	0	511	512	3	1017	40	24	
13	0	0	0	0	518	510	1	785	40	24	
14	0	0	0	0	521	510	0	419	40	24	
15	0	0	0	0	524	506	0	58	40	24	
0	0	0	0	0	528	503	3	0	40	24	
1	0	0	0	0	529	502	0	0	40	24	
2	0	0	0	0	523	503	1	0	40	24	
3	0	0	0	0	510	508	0	0	40	24	
4	0	0	0	0	500	508	3	0	40	24	
5	0	0	0	0	497	512	1	0	40	24	
6	0	0	0	0	495	516	1	0	40	24	
7	0	0	0	0	498	518	1	797	40	24	
8	0	0	0	0	504	516	3	1018	40	24	
9	0	0	0	0	510	515	1	1018	40	24	
10	0	0	0	0	516	514	1	1018	40	24	
11	0	0	0	0	514	515	1	1018	40	24	
12	0	0	0	0	511	514	2	1018	40	24	
13	0	0	0	0	514	515	1	799	40	24	
14	0	0	0	0	518	513	0	578	40	24	
15	0	0	0	0	523	511	0	298	40	24	
0	0	0	0	0	529	508	3	0	40	24	
1	0	0	0	0	528	503	0	0	40	24	
2	0	0	0	0	529	503	1	0	40	24	
3	0	0	0	0	519	505	0	0	40	24	
4	0	0	0	0	507	508	1	0	40	24	
5	0	0	0	0	499	511	0	0	40	24	
6	0	0	0	0	495	514	0	0	40	24	
7	0	0	0	0	495	515	0	0	40	24	
8	0	0	0	0	500	514	2	872	40	24	
9	0	0	0	0	503	514	1	1018	40	24	
10	0	0	0	0	513	512	0	1018	40	24	
11	0	0	0	0	515	510	0	1018	40	24	
12	0	0	0	0	514	511	3	1018	40	24	
13	0	0	0	0	515	512	1	1018	40	24	
14	0	0	0	0	515	510	1	1018	40	24	
15	0	0	0	0	519	510	0	679	40	24	
0	0	0	0	0	521	507	1	362	40	24	
1	0	0	0	0	528	505	2	32	40	24	
2	0	0	0	0	531	503	1	0	40	24	
3	0	0	0	0	525	503	2	0	40	24	
4	0	0	0	0	514	506	2	0	40	24	
5	0	0	0	0	503	505	2	0	40	24	
6	0	0	0	0	498	508	2	0	40	24	
7	0	0	0	0	497	511	2	0	40	24	
8	0	0	0	0	497	514	4	589	40	24	
9	0	0	0	0	501	513	2	1018	40	24	
10	0	0	0	0	507	512	3	1018	40	24	
11	0	0	0	0	512	512	2	1018	40	24	
12	0	0	0	0	512	509	2	1018	40	24	
13	0	0	0	0	511	511	3	1018	40	24	
14	0	0	0	0	513	511	2	1018	40	24	
15	0	0	0	0	518	508	2	1017	40	24	
0	0	0	0	0	521	505	1	641	40	24	
1	0	0	0	0	526	503	3	264	40	24	
2	0	0	0	0	528	502	2	0	40	24	
3	0	0	0	0	529	503	1	0	40	24	
4	0	0	0	0	524	503	3	0	40	24	
5	0	0	0	0	511	506	2	0	40	24	
6	0	0	0	0	504	508	2	0	40	24	
7	0	0	0	0	498	512	3	0	40	24	
8	0	0	0	0	495	514	1	260	40	24	
9	0	0	0	0	498	515	3	1018	40	24	
10	0	0	0	0	505	517	3	1018	40	24	
11	0	0	0	0	513	516	2	1018	40	24	
12	0	0	0	0	515	516	3	1019	40	24	
13	0	0	0	0	514	513	2	1018	40	24	
14	0	0	0	0	513	513	3	1018	40	24	
15	0	0	0	0	514	511	3	1018	40	24	
0	0	0	0	0	517	510	2	1019	40	24	
1	0	0	0	0	519	507	3	805	40	24	
2	0	0	0	0	528	505	1	312	40	24	
3	0	0	0	0	530	502	0	0	40	24	
4	0	0	0	0	528	499	3	0	40	24	
5	0	0	0	0	522	501	1	0	40	24	
6	0	0	0	0	505	504	1	0	40	24	
7	0	0	0	0	500	509	0	0	40	24	
8	0	0	0	0	497	511	3	0	40	24	
9	0	0	0	0	496	511	1	483	40	24	
10	0	0	0	0	500	512	3	1018	40	24	
11	0	0	0	0	503	512	2	1018	40	24	
12	0	0	0	0	510	512	2	1018	40	24	
13	0	0	0	0	515	511	2	1018	40	24	
14	0	0	0	0	513	511	3	1018	40	24	
15	0	0	0	0	512	511	3	1017	40	24	
0	0	0	0	0	515	511	3	703	40	24	
1	0	0	0	0	518	508	3	390	40	24	
2	0	0	0	0	523	507	1	61	40	24	
3	0	0	0	0	528	504	1	0	40	24	
4	0	0	0	0	532	501	2	0	40	24	
5	0	0	0	0	526	501	1	0	40	24	
6	0	0	0	0	519	507	0	0	40	24	
7	0	0	0	0	506	510	0	0	40	24	
8	0	0	0	0	497	512	3	0	40	24	
9	0	0	0	0	494	514	0	0	40	24	
10	0	0	0	0	497	518	1	731	40	24	
11	0	0	0	0	502	519	3	1018	40	24	
12	0	0	0	0	508	515	1	1019	40	24	
13	0	0	0	0	513	513	3	1018	40	24	
14	0	0	0	0	516	511	2	1018	40	24	
15	0	0	0	0	511	512	2	1018	40	24	
0	0	0	0	0	513	513	3	1019	40	24	
1	0	0	0	0	515	511	2	791	40	24	
2	0	0	0	0	522	509	2	450	40	24	
3	0	0	0	0	527	505	1	92	40	24	
4	0	0	0	0	528	503	3	0	40	24	
5	0	0	0	0	529	502	1	0	40	24	
6	0	0	0	0	524	502	0	0	40	24	
7	0	0	0	0	511	507	0	0	40	24	
8	0	0	0	0	502	511	3	0	40	24	
9	0	0	0	0	496	512	1	0	40	24	
10	0	0	0	0	495	514	0	0	40	24	
11	0	0	0	0	497	515	1	897	40	24	
12	0	0	0	0	504	515	3	1019	40	24	
13	0	0	0	0	510	511	3	1019	40	24	
14	0	0	0	0	514	512	2	1018	40	24	
15	0	0	0	0	513	512	2	1018	40	24	
0	0	0	0	0	512	512	2	1018	40	24	
1	0	0	0	0	515	511	3	1018	40	24	
2	0	0	0	0	519	510	3	1018	40	24	
3	0	0	0	0	519	508	2	880	40	24	
4	0	0	0	0	525	505	1	424	40	24	
5	0	0	0	0	527	502	1	0	40	24	
6	0	0	0	0	529	503	1	0	40	24	
7	0	0	0	0	523	505	0	0	40	24	
8	0	0	0	0	505	506	1	0	40	24	
9	0	0	0	0	500	507	0	0	40	24	
10	0	0	0	0	496	508	1	0	40	24	
11	0	0	0	0	497	512	1	750	40	24	
12	0	0	0	0	502	510	1	1018	40	24	
13	0	0	0	0	505	512	3	1018	40	24	
14	0	0	0	0	513	515	2	1018	40	24	
15	0	0	0	0	517	513	2	1018	40	24	
0	0	0	0	0	513	514	4	1019	40	24	
1	0	0	0	0	511	513	2	1018	40	24	
2	0	0	0	0	515	511	3	1018	40	24	
3	0	0	0	0	517	511	2	1018	40	24	
4	0	0	0	0	521	508	2	601	40	24	
5	0	0	0	0	527	506	2	160	40	24	
6	0	0	0	0	530	504	2	0	40	24	
7	0	0	0	0	527	504	2	0	40	24	
8	0	0	0	0	516	505	2	0	40	24	
9	0	0	0	0	503	508	3	0	40	24	
10	0	0	0	0	498	510	1	0	40	24	
11	0	0	0	0	498	513	1	0	40	24	
12	0	0	0	0	496	517	2	857	40	24	
13	0	0	0	0	502	516	2	1018	40	24	
14	0	0	0	0	506	515	2	1018	40	24	
15	0	0	0	0	514	515	2	1018	40	24	
0	0	0	0	0	513	514	2	1019	40	24	
1	0	0	0	0	510	515	3	1018	40	24	
2	0	0	0	0	514	514	1	1018	40	24	
3	0	0	0	0	516	513	1	1018	40	24	
4	0	0	0	0	521	511	3	746	40	24	
5	0	0	0	0	527	509	2	322	40	24	
6	0	0	0	0	527	507	1	0	40	24	
7	0	0	0	0	528	508	0	0	40	24	
8	0	0	0	0	525	509	1	0	40	24	
9	0	0	0	0	510	509	1	0	40	24	
10	0	0	0	0	502	513	1	0	40	24	
11	0	0	0	0	496	515	1	0	40	24	
12	0	0	0	0	497	515	1	0	40	24	
13	0	0	0	0	499	516	1	897	40	24	
14	0	0	0	0	503	516	1	1018	40	24	
15	0	0	0	0	511	515	1	1018	40	24	
0	0	0	0	0	514	513	1	1019	40	24	
1	0	0	0	0	512	514	1	1018	40	24	
2	0	0	0	0	511	514	3	1018	40	24	
3	0	0	0	0	514	512	2	1017	40	24	
4	0	0	0	0	519	508	1	832	40	24	
5	0	0	0	0	520	506	3	451	40	24	
6	0	0	0	0	527	504	2	49	40	24	
7	0	0	0	0	526	504	2	0	40	24	
8	0	0	0	0	528	503	3	0	40	24	
9	0	0	0	0	521	504	3	0	40	24	
10	0	0	0	0	508	508	2	0	40	24	
11	0	0	0	0	499	512	1	0	40	24	
12	0	0	0	0	493	513	1	0	40	24	
13	0	0	0	0	495	513	2	521	40	24	
14	0	0	0	0	501	516	1	1018	40	24	
15	0	0	0	0	505	515	1	1018	40	24	
0	0	0	0	0	511	512	2	1018	40	24	
1	0	0	0	0	516	511	1	1018	40	24	
2	0	0	0	0	510	513	1	1018	40	24	
3	0	0	0	0	514	515	0	1018	40	24	
4	0	0	0	0	516	513	3	804	40	24	
5	0	0	0	0	519	510	0	525	40	24	
6	0	0	0	0	524	507	1	187	40	24	
7	0	0	0	0	527	506	0	0	40	24	
8	0	0	0	0	529	502	1	0	40	24	
9	0	0	0	0	526	502	1	0	40	24	
10	0	0	0	0	516	504	1	0	40	24	
11	0	0	0	0	505	508	0	0	40	24	
12	0	0	0	0	498	511	3	0	40	24	
13	0	0	0	0	496	513	1	0	40	24	
14	0	0	0	0	495	516	1	828	40	24	
15	0	0	0	0	503	516	0	1018	40	24	
0	0	0	0	0	509	516	2	1018	40	24	
1	0	0	0	0	514	515	0	1018	40	24	
2	0	0	0	0	516	514	1	1018	40	24	
3	0	0	0	0	510	515	2	1018	40	24	
4	0	0	0	0	512	513	3	1019	40	24	
5	0	0	0	0	518	511	2	872	40	24	
6	0	0	0	0	521	510	2	602	40	24	
7	0	0	0	0	527	508	2	248	40	24	
8	0	0	0	0	528	503	1	0	40	24	
9	0	0	0	0	529	502	2	0	40	24	
10	0	0	0	0	524	502	2	0	40	24	
11	0	0	0	0	511	508	2	0	40	24	
12	0	0	0	0	504	510	3	0	40	24	
13	0	0	0	0	496	513	2	0	40	24	
14	0	0	0	0	496	515	1	241	40	24	
15	0	0	0	0	496	514	1	1017	40	24	
0	0	0	0	0	504	513	3	1019	40	24	
1	0	0	0	0	511	512	1	1018	40	24	
2	0	0	0	0	516	510	1	1018	40	24	
3	0	0	0	0	513	513	0	1018	40	24	
4	0	0	0	0	511	513	3	1018	40	24	
5	0	0	0	0	514	513	3	1018	40	24	
6	0	0	0	0	519	513	3	1018	40	24	
7	0	0	0	0	522	511	2	769	40	24	
8	0	0	0	0	528	508	3	306	40	24	
9	0	0	0	0	525	507	2	0	40	24	
10	0	0	0	0	528	505	2	0	40	24	
11	0	0	0	0	523	506	2	0	40	24	
12	0	0	0	0	506	509	2	0	40	24	
13	0	0	0	0	498	511	3	0	40	24	
14	0	0	0	0	495	515	2	0	40	24	
15	0	0	0	0	496	519	2	0	40	24	
0	0	0	0	0	499	519	2	801	40	24	
1	0	0	0	0	504	515	3	1018	40	24	
2	0	0	0	0	512	515	1	1018	40	24	
3	0	0	0	0	514	513	1	1018	40	24	
4	0	0	0	0	512	513	3	1017	40	24	
5	0	0	0	0	513	514	2	1018	40	24	
6	0	0	0	0	515	512	2	1018	40	24	
7	0	0	0	0	521	512	0	752	40	24	
8	0	0	0	0	525	509	1	447	40	24	
9	0	0	0	0	529	508	1	104	40	24	
10	0	0	0	0	529	505	1	0	40	24	
11	0	0	0	0	527	505	0	0	40	24	
12	0	0	0	0	516	507	1	0	40	24	
13	0	0	0	0	503	511	0	0	40	24	
14	0	0	0	0	497	514	0	0	40	24	
15	0	0	0	0	496	514	0	0	40	24	
0	0	0	0	0	495	514	3	695	40	24	
1	0	0	0	0	501	513	1	1018	40	24	
2	0	0	0	0	507	512	3	1018	40	24	
3	0	0	0	0	513	511	2	1018	40	24	
4	0	0	0	0	512	510	2	1017	40	24	
5	0	0	0	0	512	511	2	1018	40	24	
6	0	0	0	0	514	510	2	740	40	24	
7	0	0	0	0	517	510	2	454	40	24	
8	0	0	0	0	520	511	3	127	40	24	
9	0	0	0	0	526	510	2	0	40	24	
10	0	0	0	0	526	507	2	0	40	24	
11	0	0	0	0	531	505	2	0	40	24	
12	0	0	0	0	526	508	3	0	40	24	
13	0	0	0	0	513	508	2	0	40	24	
14	0	0	0	0	501	513	3	0	40	24	
15	0	0	0	0	496	514	2	0	40	24	
0	0	0	0	0	495	514	1	0	40	24	
1	0	0	0	0	497	514	2	537	40	24	
2	0	0	0	0	503	515	3	1018	40	24	
3	0	0	0	0	509	514	2	1018	40	24	
4	0	0	0	0	516	509	1	1019	40	24	
5	0	0	0	0	514	510	2	1018	40	24	
6	0	0	0	0	510	511	3	1018	40	24	
7	0	0	0	0	513	513	2	1017	40	24	
8	0	0	0	0	519	511	2	667	40	24	
9	0	0	0	0	522	510	1	365	40	24	
10	0	0	0	0	528	508	1	15	40	24	
11	0	0	0	0	532	508	1	0	40	24	
12	0	0	0	0	529	507	3	0	40	24	
13	0	0	0	0	520	507	0	0	40	24	
14	0	0	0	0	508	510	1	0	40	24	
15	0	0	0	0	501	512	0	0	40	24	
0	0	0	0	0	495	515	1	0	40	24	
1	0	0	0	0	497	517	1	415	40	24	
2	0	0	0	0	502	515	3	1018	40	24	
3	0	0	0	0	504	516	3	1018	40	24	
4	0	0	0	0	512	513	1	1017	40	24	
5	0	0	0	0	516	513	2	1018	40	24	
6	0	0	0	0	512	514	3	1018	40	24	
7	0	0	0	0	513	515	3	1018	40	24	
8	0	0	0	0	515	514	3	1018	40	24	
9	0	0	0	0	519	512	3	588	40	24	
10	0	0	0	0	524	510	2	248	40	24	
11	0	0	0	0	530	509	1	0	40	24	
12	0	0	0	0	530	507	1	0	40	24	
13	0	0	0	0	527	505	1	0	40	24	
14	0	0	0	0	513	506	0	0	40	24	
15	0	0	0	0	503	511	0	0	40	24	
0	0	0	0	0	497	513	1	0	40	24	
1	0	0	0	0	496	515	0	0	40	24	
2	0	0	0	0	491	515	1	862	40	24	
3	0	0	0	0	496	513	1	1018	40	24	
4	0	0	0	0	505	512	1	1018	40	24	
5	0	0	0	0	512	513	0	1018	40	24	
6	0	0	0	0	516	512	3	1018	40	24	
7	0	0	0	0	511	513	2	1018	40	24	
8	0	0	0	0	513	513	3	1019	40	24	
9	0	0	0	0	515	509	2	1018	40	24	
10	0	0	0	0	521	508	3	810	40	24	
11	0	0	0	0	528	505	3	399	40	24	
12	0	0	0	0	528	500	1	0	40	24	
13	0	0	0	0	531	496	2	0	40	24	
14	0	0	0	0	525	497	2	0	40	24	
15	0	0	0	0	512	501	2	0	40	24	
0	0	0	0	0	501	504	1	0	40	24	
1	0	0	0	0	495	510	3	0	40	24	
2	0	0	0	0	497	512	2	0	40	24	
3	0	0	0	0	498	514	3	869	40	24	
4	0	0	0	0	505	514	3	1019	40	24	
5	0	0	0	0	511	511	3	1018	40	24	
6	0	0	0	0	513	509	3	1018	40	24	
7	0	0	0	0	513	510	2	1018	40	24	
8	0	0	0	0	513	510	3	1019	40	24	
9	0	0	0	0	516	509	2	1018	40	24	
10	0	0	0	0	519	508	3	1018	40	24	
11	0	0	0	0	521	506	2	520	40	24	
12	0	0	0	0	527	504	1	130	40	24	
13	0	0	0	0	528	502	2	0	40	24	
14	0	0	0	0	530	500	3	0	40	24	
15	0	0	0	0	520	502	2	0	40	24	
0	0	0	0	0	507	508	3	0	40	24	
1	0	0	0	0	500	510	3	0	40	24	
2	0	0	0	0	496	514	2	0	40	24	
3	0	0	0	0	495	517	2	534	40	24	
4	0	0	0	0	501	518	3	1019	40	24	
5	0	0	0	0	505	516	3	1018	40	24	
6	0	0	0	0	510	515	2	1018	40	24	
7	0	0	0	0	516	513	2	1018	40	24	
8	0	0	0	0	514	515	2	1017	40	24	
9	0	0	0	0	510	515	3	1018	40	24	
10	0	0	0	0	517	513	2	789	40	24	
11	0	0	0	0	518	512	2	475	40	24	
12	0	0	0	0	521	510	2	144	40	24	
13	0	0	0	0	527	506	2	0	40	24	
14	0	0	0	0	531	505	2	0	40	24	
15	0	0	0	0	528	504	1	0	40	24	
0	0	0	0	0	516	505	1	0	40	24	
1	0	0	0	0	504	507	2	0	40	24	
2	0	0	0	0	499	512	2	0	40	24	
3	0	0	0	0	496	514	2	0	40	24	
4	0	0	0	0	496	516	3	469	40	24	
5	0	0	0	0	501	518	3	1018	40	24	
6	0	0	0	0	509	516	2	1018	40	24	
7	0	0	0	0	513	515	1	1018	40	24	
8	0	0	0	0	515	516	2	1018	40	24	
9	0	0	0	0	512	513	1	1018	40	24	
10	0	0	0	0	513	512	0	1018	40	24	
11	0	0	0	0	515	511	0	1017	40	24	
12	0	0	0	0	520	511	2	625	40	24	
13	0	0	0	0	525	508	0	243	40	24	
14	0	0	0	0	527	505	1	0	40	24	
15	0	0	0	0	530	504	0	0	40	24	
0	0	0	0	0	524	504	1	0	40	24	
1	0	0	0	0	512	507	2	0	40	24	
2	0	0	0	0	506	509	2	0	40	24	
3	0	0	0	0	497	511	2	0	40	24	
4	0	0	0	0	495	513	3	0	40	24	
5	0	0	0	0	499	512	3	927	40	24	
6	0	0	0	0	504	512	3	1018	40	24	
7	0	0	0	0	510	512	3	1018	40	24	
8	0	0	0	0	512	511	2	1019	40	24	
9	0	0	0	0	513	511	2	1018	40	24	
10	0	0	0	0	512	512	3	1018	40	24	
11	0	0	0	0	514	511	3	1017	40	24	
12	0	0	0	0	518	508	3	751	40	24	
13	0	0	0	0	521	507	3	380	40	24	
14	0	0	0	0	529	505	2	0	40	24	
15	0	0	0	0	527	504	2	0	40	24	
0	0	0	0	0	531	502	3	0	40	24	
1	0	0	0	0	521	502	2	0	40	24	
2	0	0	0	0	507	506	2	0	40	24	
3	0	0	0	0	499	509	0	0	40	24	
4	0	0	0	0	495	511	3	0	40	24	
5	0	0	0	0	495	513	1	460	40	24	
6	0	0	0	0	497	515	0	1018	40	24	
7	0	0	0	0	502	517	1	1018	40	24	
8	0	0	0	0	511	512	2	1019	40	24	
9	0	0	0	0	514	509	1	1018	40	24	
10	0	0	0	0	512	511	3	1018	40	24	
11	0	0	0	0	512	511	2	1018	40	24	
12	0	0	0	0	514	508	3	1019	40	24	
13	0	0	0	0	519	506	2	798	40	24	
14	0	0	0	0	524	506	2	448	40	24	
15	0	0	0	0	525	504	2	80	40	24	
0	0	0	0	0	530	502	3	0	40	24	
1	0	0	0	0	527	500	3	0	40	24	
2	0	0	0	0	516	502	2	0	40	24	
3	0	0	0	0	506	507	1	0	40	24	
4	0	0	0	0	498	510	2	0	40	24	
5	0	0	0	0	497	513	1	0	40	24	
6	0	0	0	0	497	515	1	1018	40	24	
7	0	0	0	0	501	515	1	1018	40	24	
8	0	0	0	0	508	514	1	1019	40	24	
9	0	0	0	0	513	512	1	1018	40	24	
10	0	0	0	0	514	512	0	1018	40	24	
11	0	0	0	0	511	511	1	1018	40	24	
12	0	0	0	0	512	511	3	1018	40	24	
13	0	0	0	0	519	510	1	1018	40	24	
14	0	0	0	0	523	509	3	702	40	24	
15	0	0	0	0	528	507	2	271	40	24	
0	0	0	0	0	528	504	1	0	40	24	
1	0	0	0	0	530	503	2	0	40	24	
2	0	0	0	0	525	505	2	0	40	24	
3	0	0	0	0	509	508	2	0	40	24	
4	0	0	0	0	503	510	3	0	40	24	
5	0	0	0	0	495	513	3	0	40	24	
6	0	0	0	0	496	517	1	351	40	24	
7	0	0	0	0	499	518	1	1018	40	24	
8	0	0	0	0	506	518	3	1019	40	24	
9	0	0	0	0	510	515	1	1018	40	24	
10	0	0	0	0	513	513	1	1018	40	24	
11	0	0	0	0	510	513	0	1018	40	24	
12	0	0	0	0	510	513	3	1019	40	24	
13	0	0	0	0	513	511	1	1018	40	24	
14	0	0	0	0	519	511	3	1018	40	24	
15	0	0	0	0	521	509	3	599	40	24	
0	0	0	0	0	528	506	1	210	40	24	
1	0	0	0	0	527	503	2	0	40	24	
2	0	0	0	0	529	502	2	0	40	24	
3	0	0	0	0	523	505	2	0	40	24	
4	0	0	0	0	506	508	2	0	40	24	
5	0	0	0	0	499	510	2	0	40	24	
6	0	0	0	0	496	512	1	0	40	24	
7	0	0	0	0	495	514	0	763	40	24	
8	0	0	0	0	500	514	3	1019	40	24	
9	0	0	0	0	502	512	3	1019	40	24	
10	0	0	0	0	514	513	2	1019	40	24	
11	0	0	0	0	515	510	2	1018	40	24	
12	0	0	0	0	512	512	2	1019	40	24	
13	0	0	0	0	513	511	1	1018	40	24	
14	0	0	0	0	514	511	1	1018	40	24	
15	0	0	0	0	520	510	2	935	40	24	
0	0	0	0	0	525	509	3	474	40	24	
1	0	0	0	0	528	506	2	72	40	24	
2	0	0	0	0	532	503	2	0	40	24	
3	0	0	0	0	525	502	1	0	40	24	
4	0	0	0	0	515	505	2	0	40	24	
5	0	0	0	0	502	508	0	0	40	24	
6	0	0	0	0	497	513	2	0	40	24	
7	0	0	0	0	496	517	2	0	40	24	
8	0	0	0	0	498	520	4	840	40	24	
9	0	0	0	0	502	517	3	1018	40	24	
10	0	0	0	0	508	516	3	1018	40	24	
11	0	0	0	0	514	517	1	1018	40	24	
12	0	0	0	0	514	515	3	1018	40	24	
13	0	0	0	0	510	517	0	1018	40	24	
14	0	0	0	0	513	517	1	1018	40	24	
15	0	0	0	0	518	515	2	1018	40	24	
0	0	0	0	0	522	516	4	600	40	24	
1	0	0	0	0	524	511	2	116	40	24	
2	0	0	0	0	528	508	2	0	40	24	
3	0	0	0	0	528	505	1	0	40	24	
4	0	0	0	0	526	504	2	0	40	24	
5	0	0	0	0	512	507	0	0	40	24	
6	0	0	0	0	502	511	1	0	40	24	
7	0	0	0	0	497	512	0	0	40	24	
8	0	0	0	0	495	514	3	0	40	24	
9	0	0	0	0	497	514	1	546	40	24	
10	0	0	0	0	504	516	3	1018	40	24	
11	0	0	0	0	510	514	2	1018	40	24	
12	0	0	0	0	516	510	2	1017	40	24	
13	0	0	0	0	513	511	2	1018	40	24	
14	0	0	0	0	512	511	3	687	40	24	
15	0	0	0	0	513	512	2	409	40	24	
0	0	0	0	0	518	509	1	140	40	24	
1	0	0	0	0	521	507	3	0	40	24	
2	0	0	0	0	526	505	1	0	40	24	
3	0	0	0	0	529	503	1	0	40	24	
4	0	0	0	0	529	502	2	0	40	24	
5	0	0	0	0	521	501	1	0	40	24	
6	0	0	0	0	507	507	0	0	40	24	
7	0	0	0	0	502	512	0	0	40	24	
8	0	0	0	0	496	515	3	0	40	24	
9	0	0	0	0	496	517	0	598	40	24	
10	0	0	0	0	499	517	1	1018	40	24	
11	0	0	0	0	504	516	2	1018	40	24	
12	0	0	0	0	510	513	3	1019	40	24	
13	0	0	0	0	515	510	3	1018	40	24	
14	0	0	0	0	512	511	3	1018	40	24	
15	0	0	0	0	514	513	2	1018	40	24	
0	0	0	0	0	515	511	2	1018	40	24	
1	0	0	0	0	520	508	2	711	40	24	
2	0	0	0	0	526	508	2	284	40	24	
3	0	0	0	0	529	508	1	0	40	24	
4	0	0	0	0	530	507	1	0	40	24	
5	0	0	0	0	529	505	1	0	40	24	
6	0	0	0	0	516	505	0	0	40	24	
7	0	0	0	0	501	510	0	0	40	24	
8	0	0	0	0	498	514	3	0	40	24	
9	0	0	0	0	495	515	1	0	40	24	
10	0	0	0	0	493	515	2	615	40	24	
11	0	0	0	0	502	515	0	1018	40	24	
12	0	0	0	0	511	513	1	1019	40	24	
13	0	0	0	0	511	512	3	1018	40	24	
14	0	0	0	0	518	512	3	1018	40	24	
15	0	0	0	0	511	512	3	1018	40	24	
0	0	0	0	0	514	511	2	1018	40	24	
1	0	0	0	0	516	508	2	866	40	24	
2	0	0	0	0	522	506	3	531	40	24	
3	0	0	0	0	528	505	2	162	40	24	
4	0	0	0	0	526	503	1	0	40	24	
5	0	0	0	0	526	503	1	0	40	24	
6	0	0	0	0	525	504	1	0	40	24	
7	0	0	0	0	512	506	0	0	40	24	
8	0	0	0	0	502	507	3	0	40	24	
9	0	0	0	0	497	511	1	0	40	24	
10	0	0	0	0	496	513	0	0	40	24	
11	0	0	0	0	497	513	0	839	40	24	
12	0	0	0	0	501	514	2	1018	40	24	
13	0	0	0	0	511	513	1	1018	40	24	
14	0	0	0	0	514	514	1	1018	40	24	
15	0	0	0	0	512	513	0	1018	40	24	
0	0	0	0	0	510	515	3	1019	40	24	
1	0	0	0	0	515	511	1	1018	40	24	
2	0	0	0	0	518	510	3	824	40	24	
3	0	0	0	0	521	508	2	428	40	24	
4	0	0	0	0	525	504	0	0	40	24	
5	0	0	0	0	528	501	0	0	40	24	
6	0	0	0	0	531	502	2	0	40	24	
7	0	0	0	0	523	505	2	0	40	24	
8	0	0	0	0	507	508	2	0	40	24	
9	0	0	0	0	501	511	2	0	40	24	
10	0	0	0	0	496	513	2	0	40	24	
11	0	0	0	0	495	515	2	0	40	24	
12	0	0	0	0	500	513	4	697	40	24	
13	0	0	0	0	504	513	3	1018	40	24	
14	0	0	0	0	512	511	2	1018	40	24	
15	0	0	0	0	517	510	2	1018	40	24	
0	0	0	0	0	515	510	3	1019	40	24	
1	0	0	0	0	513	509	3	869	40	24	
2	0	0	0	0	514	506	1	656	40	24	
3	0	0	0	0	517	507	0	428	40	24	
4	0	0	0	0	523	504	2	112	40	24	
5	0	0	0	0	524	503	0	0	40	24	
6	0	0	0	0	530	501	0	0	40	24	
7	0	0	0	0	528	500	1	0	40	24	
8	0	0	0	0	514	504	0	0	40	24	
9	0	0	0	0	503	507	2	0	40	24	
10	0	0	0	0	495	508	2	0	40	24	
11	0	0	0	0	498	512	2	0	40	24	
12	0	0	0	0	495	514	3	735	40	24	
13	0	0	0	0	500	511	2	1018	40	24	
14	0	0	0	0	508	511	3	1018	40	24	
15	0	0	0	0	513	511	3	1018	40	24	
0	0	0	0	0	513	510	1	1019	40	24	
1	0	0	0	0	509	511	3	1018	40	24	
2	0	0	0	0	514	509	3	1018	40	24	
3	0	0	0	0	517	510	2	626	40	24	
4	0	0	0	0	520	510	3	303	40	24	
5	0	0	0	0	524	506	2	0	40	24	
6	0	0	0	0	527	504	2	0	40	24	
7	0	0	0	0	529	504	2	0	40	24	
8	0	0	0	0	524	502	1	0	40	24	
9	0	0	0	0	511	507	3	0	40	24	
10	0	0	0	0	504	510	3	0	40	24	
11	0	0	0	0	496	514	2	0	40	24	
12	0	0	0	0	496	515	1	0	40	24	
13	0	0	0	0	496	514	3	655	40	24	
14	0	0	0	0	505	516	3	1018	40	24	
15	0	0	0	0	509	514	1	1018	40	24	
0	0	0	0	0	515	512	2	1018	40	24	
1	0	0	0	0	512	510	1	1018	40	24	
2	0	0	0	0	510	509	1	1018	40	24	
3	0	0	0	0	514	510	0	680	40	24	
4	0	0	0	0	515	509	3	408	40	24	
5	0	0	0	0	521	506	0	140	40	24	
6	0	0	0	0	528	504	0	0	40	24	
7	0	0	0	0	529	502	0	0	40	24	
8	0	0	0	0	528	502	3	0	40	24	
9	0	0	0	0	520	502	0	0	40	24	
10	0	0	0	0	509	504	2	0	40	24	
11	0	0	0	0	500	508	2	0	40	24	
12	0	0	0	0	496	510	3	0	40	24	
13	0	0	0	0	494	513	3	376	40	24	
14	0	0	0	0	500	513	3	1018	40	24	
15	0	0	0	0	506	513	2	1018	40	24	
0	0	0	0	0	513	509	2	1018	40	24	
1	0	0	0	0	517	508	2	1018	40	24	
2	0	0	0	0	514	511	2	1018	40	24	
3	0	0	0	0	514	511	2	882	40	24	
4	0	0	0	0	513	510	2	613	40	24	
5	0	0	0	0	519	510	2	343	40	24	
6	0	0	0	0	525	510	2	49	40	24	
7	0	0	0	0	527	508	2	0	40	24	
8	0	0	0	0	529	507	2	0	40	24	
9	0	0	0	0	530	505	2	0	40	24	
10	0	0	0	0	516	506	1	0	40	24	
11	0	0	0	0	505	507	1	0	40	24	
12	0	0	0	0	497	509	2	0	40	24	
13	0	0	0	0	496	510	1	0	40	24	
14	0	0	0	0	498	515	1	508	40	24	
15	0	0	0	0	501	516	1	1018	40	24	
0	0	0	0	0	508	515	3	1018	40	24	
1	0	0	0	0	514	513	1	1018	40	24	
2	0	0	0	0	515	512	0	1018	40	24	
3	0	0	0	0	509	513	0	1018	40	24	
4	0	0	0	0	512	513	2	1018	40	24	
5	0	0	0	0	515	511	0	891	40	24	
6	0	0	0	0	523	511	1	634	40	24	
7	0	0	0	0	526	507	0	336	40	24	
8	0	0	0	0	528	504	1	19	40	24	
9	0	0	0	0	528	501	0	0	40	24	
10	0	0	0	0	524	502	3	0	40	24	
11	0	0	0	0	511	506	2	0	40	24	
12	0	0	0	0	502	509	3	0	40	24	
13	0	0	0	0	496	512	3	0	40	24	
14	0	0	0	0	496	515	2	495	40	24	
15	0	0	0	0	496	514	2	1018	40	24	
0	0	0	0	0	504	514	4	1019	40	24	
1	0	0	0	0	512	511	3	1018	40	24	
2	0	0	0	0	513	510	3	1018	40	24	
3	0	0	0	0	514	512	2	1018	40	24	
4	0	0	0	0	511	513	2	1019	40	24	
5	0	0	0	0	513	510	3	1018	40	24	
6	0	0	0	0	521	511	2	1018	40	24	
7	0	0	0	0	522	509	2	580	40	24	
8	0	0	0	0	527	506	2	207	40	24	
9	0	0	0	0	527	503	2	0	40	24	
10	0	0	0	0	528	504	2	0	40	24	
11	0	0	0	0	521	506	2	0	40	24	
12	0	0	0	0	504	509	2	0	40	24	
13	0	0	0	0	499	510	1	0	40	24	
14	0	0	0	0	497	515	1	272	40	24	
15	0	0	0	0	497	518	1	1017	40	24	
0	0	0	0	0	503	516	3	1019	40	24	
1	0	0	0	0	507	513	1	1019	40	24	
2	0	0	0	0	512	512	0	1018	40	24	
3	0	0	0	0	515	510	0	1018	40	24	
4	0	0	0	0	513	511	3	1019	40	24	
5	0	0	0	0	513	513	1	1018	40	24	
6	0	0	0	0	515	511	1	1018	40	24	
7	0	0	0	0	519	509	0	1018	40	24	
8	0	0	0	0	524	506	3	1017	40	24	
9	0	0	0	0	530	506	1	465	40	24	
10	0	0	0	0	531	504	0	34	40	24	
11	0	0	0	0	529	504	1	0	40	24	
12	0	0	0	0	515	507	1	0	40	24	
13	0	0	0	0	502	510	1	0	40	24	
14	0	0	0	0	495	513	1	0	40	24	
15	0	0	0	0	496	515	1	353	40	24	
0	0	0	0	0	495	515	2	1019	40	24	
1	0	0	0	0	501	514	1	1019	40	24	
2	0	0	0	0	505	512	1	1018	40	24	
3	0	0	0	0	512	512	0	1018	40	24	
4	0	0	0	0	514	510	3	1019	40	24	
5	0	0	0	0	511	510	1	1018	40	24	
6	0	0	0	0	513	512	1	1018	40	24	
7	0	0	0	0	517	513	0	1018	40	24	
8	0	0	0	0	522	512	3	1018	40	24	
9	0	0	0	0	524	509	0	598	40	24	
10	0	0	0	0	528	505	0	117	40	24	
11	0	0	0	0	530	504	0	0	40	24	
12	0	0	0	0	526	505	3	0	40	24	
13	0	0	0	0	510	507	0	0	40	24	
14	0	0	0	0	502	508	1	0	40	24	
15	0	0	0	0	497	513	0	0	40	24	
0	0	0	0	0	496	513	3	0	40	24	
1	0	0	0	0	500	513	0	635	40	24	
2	0	0	0	0	503	516	1	1018	40	24	
3	0	0	0	0	510	515	1	1018	40	24	
4	0	0	0	0	514	513	3	1018	40	24	
5	0	0	0	0	513	513	0	1018	40	24	
6	0	0	0	0	511	513	1	1018	40	24	
7	0	0	0	0	514	513	1	728	40	24	
8	0	0	0	0	518	510	1	479	40	24	
9	0	0	0	0	520	509	0	208	40	24	
10	0	0	0	0	527	507	0	0	40	24	
11	0	0	0	0	528	506	1	0	40	24	
12	0	0	0	0	530	505	3	0	40	24	
13	0	0	0	0	523	505	0	0	40	24	
14	0	0	0	0	507	508	3	0	40	24	
15	0	0	0	0	503	510	2	0	40	24	
0	0	0	0	0	496	513	3	0	40	24	
1	0	0	0	0	495	515	3	337	40	24	
2	0	0	0	0	499	515	3	1018	40	24	
3	0	0	0	0	504	515	3	1018	40	24	
4	0	0	0	0	510	514	3	1019	40	24	
5	0	0	0	0	516	510	2	1018	40	24	
6	0	0	0	0	512	512	3	1018	40	24	
7	0	0	0	0	514	513	3	1018	40	24	
8	0	0	0	0	515	513	3	1018	40	24	
9	0	0	0	0	517	512	2	1018	40	24	
10	0	0	0	0	525	509	1	655	40	24	
11	0	0	0	0	527	506	1	233	40	24	
12	0	0	0	0	529	504	2	0	40	24	
13	0	0	0	0	528	503	2	0	40	24	
14	0	0	0	0	515	506	1	0	40	24	
15	0	0	0	0	504	509	1	0	40	24	
0	0	0	0	0	499	514	2	0	40	24	
1	0	0	0	0	496	515	2	0	40	24	
2	0	0	0	0	496	516	2	881	40	24	
3	0	0	0	0	498	517	1	1018	40	24	
4	0	0	0	0	504	514	3	1018	40	24	
5	0	0	0	0	515	514	2	1018	40	24	
6	0	0	0	0	516	512	2	1018	40	24	
7	0	0	0	0	511	511	2	1018	40	24	
8	0	0	0	0	512	509	2	1019	40	24	
9	0	0	0	0	517	507	1	1018	40	24	
10	0	0	0	0	520	507	1	753	40	24	
11	0	0	0	0	529	507	0	323	40	24	
12	0	0	0	0	528	503	2	0	40	24	
13	0	0	0	0	529	501	0	0	40	24	
14	0	0	0	0	524	502	2	0	40	24	
15	0	0	0	0	513	506	2	0	40	24	
0	0	0	0	0	502	509	3	0	40	24	
1	0	0	0	0	494	511	3	0	40	24	
2	0	0	0	0	495	515	2	0	40	24	
3	0	0	0	0	496	515	2	924	40	24	
4	0	0	0	0	505	516	4	1019	40	24	
5	0	0	0	0	509	512	3	1018	40	24	
6	0	0	0	0	514	510	3	1018	40	24	
7	0	0	0	0	513	511	1	1018	40	24	
8	0	0	0	0	511	511	2	1019	40	24	
9	0	0	0	0	513	511	1	1018	40	24	
10	0	0	0	0	518	510	1	1018	40	24	
11	0	0	0	0	523	509	0	481	40	24	
12	0	0	0	0	527	505	1	76	40	24	
13	0	0	0	0	527	504	0	0	40	24	
14	0	0	0	0	530	504	1	0	40	24	
15	0	0	0	0	521	508	0	0	40	24	
0	0	0	0	0	505	511	3	0	40	24	
1	0	0	0	0	499	513	2	0	40	24	
2	0	0	0	0	497	516	2	0	40	24	
3	0	0	0	0	497	516	2	414	40	24	
4	0	0	0	0	499	514	2	1017	40	24	
5	0	0	0	0	506	513	3	1018	40	24	
6	0	0	0	0	510	515	3	1018	40	24	
7	0	0	0	0	516	512	2	1018	40	24	
8	0	0	0	0	512	513	2	1019	40	24	
9	0	0	0	0	510	510	1	1018	40	24	
10	0	0	0	0	515	509	1	701	40	24	
11	0	0	0	0	517	508	0	391	40	24	
12	0	0	0	0	523	507	3	49	40	24	
13	0	0	0	0	529	504	0	0	40	24	
14	0	0	0	0	529	500	1	0	40	24	
15	0	0	0	0	529	501	0	0	40	24	
0	0	0	0	0	516	503	1	0	40	24	
1	0	0	0	0	504	506	2	0	40	24	
2	0	0	0	0	498	509	2	0	40	24	
3	0	0	0	0	497	510	2	0	40	24	
4	0	0	0	0	498	511	3	874	40	24	
5	0	0	0	0	501	510	3	1018	40	24	
6	0	0	0	0	507	510	3	1018	40	24	
7	0	0	0	0	514	511	2	1018	40	24	
8	0	0	0	0	515	510	3	1019	40	24	
9	0	0	0	0	511	511	2	1018	40	24	
10	0	0	0	0	514	512	2	1018	40	24	
11	0	0	0	0	517	512	2	929	40	24	
12	0	0	0	0	522	511	3	453	40	24	
13	0	0	0	0	525	508	2	60	40	24	
14	0	0	0	0	528	509	2	0	40	24	
15	0	0	0	0	527	507	2	0	40	24	
0	0	0	0	0	523	505	1	0	40	24	
1	0	0	0	0	511	508	2	0	40	24	
2	0	0	0	0	500	509	3	0	40	24	
3	0	0	0	0	498	512	2	0	40	24	
4	0	0	0	0	496	515	3	0	40	24	
5	0	0	0	0	499	515	2	454	40	24	
6	0	0	0	0	503	516	1	1018	40	24	
7	0	0	0	0	510	515	0	1018	40	24	
8	0	0	0	0	518	514	3	1017	40	24	
9	0	0	0	0	512	513	0	1018	40	24	
10	0	0	0	0	515	513	0	888	40	24	
11	0	0	0	0	513	511	2	591	40	24	
12	0	0	0	0	517	508	3	317	40	24	
13	0	0	0	0	519	507	2	48	40	24	
14	0	0	0	0	528	504	2	0	40	24	
15	0	0	0	0	528	503	2	0	40	24	
0	0	0	0	0	530	503	2	0	40	24	
1	0	0	0	0	520	504	2	0	40	24	
2	0	0	0	0	509	508	2	0	40	24	
3	0	0	0	0	500	513	2	0	40	24	
4	0	0	0	0	496	514	3	0	40	24	
5	0	0	0	0	495	517	2	0	40	24	
6	0	0	0	0	502	519	1	1014	40	24	
7	0	0	0	0	505	518	1	1018	40	24	
8	0	0	0	0	512	516	3	1019	40	24	
9	0	0	0	0	515	515	0	1018	40	24	
10	0	0	0	0	513	516	0	1018	40	24	
11	0	0	0	0	511	517	1	1018	40	24	
12	0	0	0	0	513	516	3	1018	40	24	
13	0	0	0	0	519	512	0	768	40	24	
14	0	0	0	0	522	508	2	495	40	24	
15	0	0	0	0	527	505	2	163	40	24	
0	0	0	0	0	531	502	1	0	40	24	
1	0	0	0	0	528	503	3	0	40	24	
2	0	0	0	0	517	506	2	0	40	24	
3	0	0	0	0	502	508	2	0	40	24	
4	0	0	0	0	497	512	3	0	40	24	
5	0	0	0	0	495	513	3	0	40	24	
6	0	0	0	0	494	513	3	1018	40	24	
7	0	0	0	0	502	511	2	1018	40	24	
8	0	0	0	0	506	509	3	1019	40	24	
9	0	0	0	0	512	508	3	1018	40	24	
10	0	0	0	0	515	508	3	1018	40	24	
11	0	0	0	0	511	509	3	1018	40	24	
12	0	0	0	0	512	510	2	1019	40	24	
13	0	0	0	0	516	508	2	1018	40	24	
14	0	0	0	0	523	507	1	1018	40	24	
15	0	0	0	0	527	504	0	566	40	24	
0	0	0	0	0	526	503	2	76	40	24	
1	0	0	0	0	530	501	0	0	40	24	
2	0	0	0	0	524	503	0	0	40	24	
3	0	0	0	0	509	508	0	0	40	24	
4	0	0	0	0	502	510	3	0	40	24	
5	0	0	0	0	497	514	1	0	40	24	
6	0	0	0	0	497	516	1	357	40	24	
7	0	0	0	0	498	516	1	1018	40	24	
8	0	0	0	0	505	516	3	1019	40	24	
9	0	0	0	0	509	513	1	1018	40	24	
10	0	0	0	0	513	511	3	1018	40	24	
11	0	0	0	0	514	511	2	1018	40	24	
12	0	0	0	0	512	510	1	1018	40	24	
13	0	0	0	0	514	509	3	1018	40	24	
14	0	0	0	0	517	510	2	1018	40	24	
15	0	0	0	0	522	509	2	741	40	24	
0	0	0	0	0	524	505	2	313	40	24	
1	0	0	0	0	528	502	2	0	40	24	
2	0	0	0	0	529	503	2	0	40	24	
3	0	0	0	0	519	507	2	0	40	24	
4	0	0	0	0	506	510	3	0	40	24	
5	0	0	0	0	497	513	2	0	40	24	
6	0	0	0	0	496	515	2	0	40	24	
7	0	0	0	0	497	517	3	258	40	24	
8	0	0	0	0	498	516	1	860	40	24	
9	0	0	0	0	506	515	3	1018	40	24	
10	0	0	0	0	511	514	2	1018	40	24	
11	0	0	0	0	516	513	1	1018	40	24	
12	0	0	0	0	514	513	2	843	40	24	
13	0	0	0	0	511	512	1	620	40	24	
14	0	0	0	0	514	511	0	396	40	24	
15	0	0	0	0	518	511	0	159	40	24	
0	0	0	0	0	524	508	3	0	40	24	
1	0	0	0	0	528	506	2	0	40	24	
2	0	0	0	0	530	506	2	0	40	24	
3	0	0	0	0	528	506	2	0	40	24	
4	0	0	0	0	516	509	3	0	40	24	
5	0	0	0	0	504	508	2	0	40	24	
6	0	0	0	0	496	512	3	0	40	24	
7	0	0	0	0	496	513	2	0	40	24	
8	0	0	0	0	496	517	3	1007	40	24	
9	0	0	0	0	502	515	2	1019	40	24	
10	0	0	0	0	508	513	1	1018	40	24	
11	0	0	0	0	515	513	1	1018	40	24	
12	0	0	0	0	513	512	1	1019	40	24	
13	0	0	0	0	510	511	1	1018	40	24	
14	0	0	0	0	513	511	0	1018	40	24	
15	0	0	0	0	515	511	0	1018	40	24	
0	0	0	0	0	519	509	4	1018	40	24	
1	0	0	0	0	524	505	1	492	40	24	
2	0	0	0	0	529	503	2	36	40	24	
3	0	0	0	0	531	503	2	0	40	24	
4	0	0	0	0	524	503	3	0	40	24	
5	0	0	0	0	513	504	2	0	40	24	
6	0	0	0	0	505	508	2	0	40	24	
7	0	0	0	0	496	513	3	0	40	24	
8	0	0	0	0	497	515	3	289	40	24	
9	0	0	0	0	497	515	3	979	40	24	
10	0	0	0	0	504	514	3	1018	40	24	
11	0	0	0	0	509	514	1	1018	40	24	
12	0	0	0	0	517	512	3	1019	40	24	
13	0	0	0	0	513	513	1	1018	40	24	
14	0	0	0	0	512	513	1	1018	40	24	
15	0	0	0	0	515	512	0	1017	40	24	
0	0	0	0	0	519	510	3	765	40	24	
1	0	0	0	0	520	509	1	425	40	24	
2	0	0	0	0	528	505	2	55	40	24	
3	0	0	0	0	527	504	2	0	40	24	
4	0	0	0	0	529	503	3	0	40	24	
5	0	0	0	0	519	503	2	0	40	24	
6	0	0	0	0	504	507	3	0	40	24	
7	0	0	0	0	497	510	2	0	40	24	
8	0	0	0	0	495	510	3	0	40	24	
9	0	0	0	0	491	511	3	0	40	24	
10	0	0	0	0	497	515	2	963	40	24	
11	0	0	0	0	503	513	1	1018	40	24	
12	0	0	0	0	510	510	2	1018	40	24	
13	0	0	0	0	514	508	1	1018	40	24	
14	0	0	0	0	513	511	1	1018	40	24	
15	0	0	0	0	512	513	0	1018	40	24	
0	0	0	0	0	515	512	2	1017	40	24	
1	0	0	0	0	522	509	0	620	40	24	
2	0	0	0	0	523	507	0	235	40	24	
3	0	0	0	0	531	506	2	0	40	24	
4	0	0	0	0	530	502	3	0	40	24	
5	0	0	0	0	529	501	3	0	40	24	
6	0	0	0	0	518	503	2	0	40	24	
7	0	0	0	0	504	506	2	0	40	24	
8	0	0	0	0	498	510	3	0	40	24	
9	0	0	0	0	497	514	3	0	40	24	
10	0	0	0	0	497	515	2	515	40	24	
11	0	0	0	0	502	517	1	1018	40	24	
12	0	0	0	0	508	513	3	1018	40	24	
13	0	0	0	0	515	511	1	1018	40	24	
14	0	0	0	0	518	509	1	1018	40	24	
15	0	0	0	0	512	510	1	1018	40	24	
0	0	0	0	0	513	512	3	1019	40	24	
1	0	0	0	0	517	511	1	1018	40	24	
2	0	0	0	0	520	510	0	659	40	24	
3	0	0	0	0	526	507	0	237	40	24	
4	0	0	0	0	527	504	1	0	40	24	
5	0	0	0	0	528	502	0	0	40	24	
6	0	0	0	0	525	504	1	0	40	24	
7	0	0	0	0	513	506	0	0	40	24	
8	0	0	0	0	503	510	3	0	40	24	
9	0	0	0	0	495	513	3	0	40	24	
10	0	0	0	0	495	515	2	381	40	24	
11	0	0	0	0	495	515	2	1018	40	24	
12	0	0	0	0	504	515	2	1018	40	24	
13	0	0	0	0	510	514	3	1018	40	24	
14	0	0	0	0	516	512	3	1018	40	24	
15	0	0	0	0	514	515	2	1018	40	24	
0	0	0	0	0	509	514	2	1019	40	24	
1	0	0	0	0	511	512	3	1018	40	24	
2	0	0	0	0	517	510	2	1018	40	24	
3	0	0	0	0	521	506	1	606	40	24	
4	0	0	0	0	527	504	2	182	40	24	
5	0	0	0	0	531	501	1	0	40	24	
6	0	0	0	0	531	503	0	0	40	24	
7	0	0	0	0	521	506	0	0	40	24	
8	0	0	0	0	508	508	3	0	40	24	
9	0	0	0	0	500	510	0	0	40	24	
10	0	0	0	0	498	514	1	0	40	24	
11	0	0	0	0	497	517	1	537	40	24	
12	0	0	0	0	502	515	3	1018	40	24	
13	0	0	0	0	504	516	3	1018	40	24	
14	0	0	0	0	512	516	3	1018	40	24	
15	0	0	0	0	514	514	2	1018	40	24	
0	0	0	0	0	511	517	4	1019	40	24	
1	0	0	0	0	511	515	2	1018	40	24	
2	0	0	0	0	514	514	3	1018	40	24	
3	0	0	0	0	519	515	2	568	40	24	
4	0	0	0	0	526	514	2	214	40	24	
5	0	0	0	0	528	511	1	0	40	24	
6	0	0	0	0	530	507	1	0	40	24	
7	0	0	0	0	526	507	0	0	40	24	
8	0	0	0	0	515	509	3	0	40	24	
9	0	0	0	0	503	511	0	0	40	24	
10	0	0	0	0	497	515	0	0	40	24	
11	0	0	0	0	496	516	1	0	40	23	
12	0	0	0	0	496	518	1	549	40	24	
13	0	0	0	0	503	518	3	1018	40	24	
14	0	0	0	0	508	518	3	1018	40	24	
15	0	0	0	0	515	516	2	1018	40	24	
0	0	0	0	0	515	515	3	1019	40	24	
1	0	0	0	0	511	515	2	1018	40	24	
2	0	0	0	0	511	516	2	1018	40	24	
3	0	0	0	0	515	514	2	664	40	24	
4	0	0	0	0	521	510	4	330	40	24	
5	0	0	0	0	527	504	2	0	40	23	
6	0	0	0	0	528	503	3	0	40	24	
7	0	0	0	0	532	502	2	0	40	24	
8	0	0	0	0	525	503	1	0	40	24	
9	0	0	0	0	512	506	2	0	40	24	
10	0	0	0	0	504	510	3	0	40	24	
11	0	0	0	0	496	513	3	0	40	24	
12	0	0	0	0	496	515	2	0	40	24	
13	0	0	0	0	496	515	3	1018	40	24	
14	0	0	0	0	503	515	2	1018	40	24	
15	0	0	0	0	511	515	1	1018	40	24	
0	0	0	0	0	515	514	3	1019	40	24	
1	0	0	0	0	513	515	2	1018	40	24	
2	0	0	0	0	511	515	1	1018	40	24	
3	0	0	0	0	513	515	1	1018	40	24	
4	0	0	0	0	518	511	3	1019	40	24	
5	0	0	0	0	519	509	1	430	40	24	
6	0	0	0	0	527	509	0	0	40	24	
7	0	0	0	0	530	506	0	0	40	24	
8	0	0	0	0	532	505	3	0	40	24	
9	0	0	0	0	520	505	2	0	40	24	
10	0	0	0	0	506	509	3	0	40	24	
11	0	0	0	0	500	510	2	0	40	24	
12	0	0	0	0	497	513	3	0	40	24	
13	0	0	0	0	496	515	3	498	40	24	
14	0	0	0	0	499	515	3	1018	40	24	
15	0	0	0	0	504	515	3	1018	40	24	
0	0	0	0	0	510	513	3	1019	40	24	
1	0	0	0	0	515	511	3	1018	40	24	
2	0	0	0	0	513	514	3	1018	40	24	
3	0	0	0	0	514	514	3	1018	40	24	
4	0	0	0	0	517	514	3	1018	40	24	
5	0	0	0	0	520	512	2	752	40	24	
6	0	0	0	0	524	509	3	353	40	24	
7	0	0	0	0	526	507	2	0	40	24	
8	0	0	0	0	529	502	2	0	40	24	
9	0	0	0	0	527	501	3	0	40	23	
10	0	0	0	0	515	504	2	0	40	24	
11	0	0	0	0	505	507	2	0	40	24	
12	0	0	0	0	499	509	3	0	40	24	
13	0	0	0	0	497	512	3	0	40	24	
14	0	0	0	0	494	514	3	673	40	24	
15	0	0	0	0	502	513	2	1018	40	24	
0	0	0	0	0	505	510	3	1018	40	24	
1	0	0	0	0	512	509	3	1018	40	24	
2	0	0	0	0	514	508	3	1018	40	24	
3	0	0	0	0	511	509	3	1018	40	23	
4	0	0	0	0	512	510	3	1019	40	24	
5	0	0	0	0	517	509	3	1018	40	23	
6	0	0	0	0	520	510	2	648	40	24	
7	0	0	0	0	527	508	2	252	40	24	
8	0	0	0	0	527	503	1	0	40	24	
9	0	0	0	0	530	502	2	0	40	24	
10	0	0	0	0	525	501	2	0	40	24	
11	0	0	0	0	512	505	1	0	40	24	
12	0	0	0	0	504	510	3	0	40	23	
13	0	0	0	0	496	512	3	0	40	23	
14	0	0	0	0	495	514	1	0	40	24	
15	0	0	0	0	498	517	1	823	40	24	
0	0	0	0	0	504	516	2	1019	40	24	
1	0	0	0	0	510	511	2	1019	40	23	
2	0	0	0	0	515	512	2	1018	40	24	
3	0	0	0	0	513	513	1	1018	40	24	
4	0	0	0	0	511	511	3	1018	40	24	
5	0	0	0	0	515	512	2	1018	40	24	
6	0	0	0	0	519	511	2	1018	40	24	
7	0	0	0	0	522	511	1	896	40	24	
8	0	0	0	0	527	507	3	397	40	24	
9	0	0	0	0	530	504	2	2	40	24	
10	0	0	0	0	529	505	3	0	40	24	
11	0	0	0	0	521	507	2	0	40	24	
12	0	0	0	0	509	512	2	0	40	24	
13	0	0	0	0	502	513	3	0	40	24	
14	0	0	0	0	496	515	3	0	40	24	
15	0	0	0	0	495	518	2	517	40	24	
0	0	0	0	0	499	516	2	1018	40	24	
1	0	0	0	0	504	513	3	1018	40	24	
2	0	0	0	0	511	511	2	1018	40	24	
3	0	0	0	0	515	510	1	1018	40	24	
4	0	0	0	0	511	510	3	1017	40	24	
5	0	0	0	0	512	511	1	951	40	23	
6	0	0	0	0	516	511	1	653	40	24	
7	0	0	0	0	519	511	0	353	40	24	
8	0	0	0	0	522	508	3	11	40	24	
9	0	0	0	0	527	506	0	0	40	24	
10	0	0	0	0	530	503	0	0	40	24	
11	0	0	0	0	527	504	0	0	40	24	
12	0	0	0	0	516	507	3	0	40	24	
13	0	0	0	0	504	508	1	0	40	23	
14	0	0	0	0	499	513	3	0	40	24	
15	0	0	0	0	495	513	2	0	40	23	
0	0	0	0	0	496	514	3	526	40	24	
1	0	0	0	0	501	514	2	1018	40	23	
2	0	0	0	0	508	513	2	1018	40	23	
3	0	0	0	0	517	512	2	1018	40	24	
4	0	0	0	0	516	511	4	1019	40	24	
5	0	0	0	0	510	509	3	1018	40	24	
6	0	0	0	0	513	508	3	1018	40	24	
7	0	0	0	0	517	509	2	1018	40	23	
8	0	0	0	0	521	507	2	588	40	24	
9	0	0	0	0	527	505	2	161	40	23	
10	0	0	0	0	527	503	1	0	40	23	
11	0	0	0	0	531	503	0	0	40	24	
12	0	0	0	0	523	502	1	0	40	24	
13	0	0	0	0	509	505	1	0	40	24	
14	0	0	0	0	503	510	0	0	40	24	
15	0	0	0	0	495	515	0	0	40	23	
0	0	0	0	0	497	516	3	354	40	24	
1	0	0	0	0	498	514	1	1018	40	23	
2	0	0	0	0	502	513	1	1018	40	24	
3	0	0	0	0	511	513	2	1018	40	23	
4	0	0	0	0	515	510	1	1018	40	24	
5	0	0	0	0	512	511	3	1018	40	23	
6	0	0	0	0	510	513	2	1018	40	23	
7	0	0	0	0	514	511	2	1018	40	24	
8	0	0	0	0	516	507	1	1019	40	23	
9	0	0	0	0	523	504	3	635	40	23	
10	0	0	0	0	527	503	2	159	40	23	
11	0	0	0	0	529	500	2	0	40	23	
12	0	0	0	0	528	499	3	0	40	24	
13	0	0	0	0	521	501	2	0	40	23	
14	0	0	0	0	507	507	2	0	40	23	
15	0	0	0	0	500	512	0	0	40	23	
0	0	0	0	0	498	512	2	0	40	24	
1	0	0	0	0	495	517	1	307	40	24	
2	0	0	0	0	502	518	1	986	40	23	
3	0	0	0	0	504	517	0	1018	40	23	
4	0	0	0	0	512	516	3	1019	40	24	
5	0	0	0	0	516	513	0	1018	40	23	
6	0	0	0	0	512	515	1	1018	40	24	
7	0	0	0	0	512	515	3	1018	40	23	
8	0	0	0	0	516	514	1	745	40	24	
9	0	0	0	0	520	513	3	457	40	23	
10	0	0	0	0	524	510	2	95	40	23	
11	0	0	0	0	528	508	2	0	40	24	
12	0	0	0	0	528	504	1	0	40	23	
13	0	0	0	0	527	504	3	0	40	23	
14	0	0	0	0	518	506	2	0	40	23	
15	0	0	0	0	504	510	2	0	40	23	
0	0	0	0	0	497	514	2	0	40	24	
1	0	0	0	0	497	517	3	0	40	23	
2	0	0	0	0	497	517	3	688	40	23	
3	0	0	0	0	504	518	3	1018	40	23	
4	0	0	0	0	511	514	3	1019	40	24	
5	0	0	0	0	513	511	3	1018	40	24	
6	0	0	0	0	515	511	3	1018	40	23	
7	0	0	0	0	512	512	3	1018	40	23	
8	0	0	0	0	512	511	3	1019	40	24	
9	0	0	0	0	517	508	3	1018	40	23	
10	0	0	0	0	519	509	3	817	40	24	
11	0	0	0	0	525	506	3	397	40	23	
12	0	0	0	0	528	504	2	0	40	24	
13	0	0	0	0	525	502	2	0	40	23	
14	0	0	0	0	522	504	3	0	40	24	
15	0	0	0	0	510	507	2	0	40	24	
0	0	0	0	0	502	509	3	0	40	23	
1	0	0	0	0	495	516	3	0	40	23	
2	0	0	0	0	494	516	3	294	40	23	
3	0	0	0	0	495	516	3	1017	40	23	
4	0	0	0	0	504	516	3	1019	40	24	
5	0	0	0	0	511	512	3	1018	40	23	
6	0	0	0	0	515	512	3	1018	40	23	
7	0	0	0	0	514	513	2	1018	40	23	
8	0	0	0	0	512	515	3	1019	40	23	
9	0	0	0	0	515	514	3	1018	40	23	
10	0	0	0	0	519	511	2	1018	40	23	
11	0	0	0	0	522	508	1	490	40	23	
12	0	0	0	0	527	505	2	70	40	24	
13	0	0	0	0	529	503	1	0	40	23	
14	0	0	0	0	529	503	1	0	40	24	
15	0	0	0	0	520	504	1	0	40	23	
0	0	0	0	0	505	505	1	0	40	23	
1	0	0	0	0	500	507	1	0	40	23	
2	0	0	0	0	496	512	1	0	40	23	
3	0	0	0	0	496	516	0	333	40	23	
4	0	0	0	0	500	515	3	1019	40	23	
5	0	0	0	0	504	513	1	1018	40	23	
6	0	0	0	0	511	512	0	1018	40	23	
7	0	0	0	0	515	509	0	1018	40	23	
8	0	0	0	0	512	509	3	1019	40	24	
9	0	0	0	0	512	510	1	1018	40	23	
10	0	0	0	0	515	508	1	1018	40	23	
11	0	0	0	0	519	507	0	842	40	23	
12	0	0	0	0	525	504	1	481	40	23	
13	0	0	0	0	527	504	0	108	40	23	
14	0	0	0	0	530	500	1	0	40	23	
15	0	0	0	0	527	500	0	0	40	23	
0	0	0	0	0	515	502	1	0	40	24	
1	0	0	0	0	504	506	0	0	40	23	
2	0	0	0	0	496	509	1	0	40	23	
3	0	0	0	0	495	511	1	0	40	23	
4	0	0	0	0	495	510	3	510	40	24	
5	0	0	0	0	501	511	1	1018	40	23	
6	0	0	0	0	510	511	1	1018	40	23	
7	0	0	0	0	513	511	1	1018	40	23	
8	0	0	0	0	514	510	3	1019	40	23	
9	0	0	0	0	510	510	1	1018	40	23	
10	0	0	0	0	515	510	1	1018	40	23	
11	0	0	0	0	515	508	2	709	40	23	
12	0	0	0	0	519	508	3	390	40	24	
13	0	0	0	0	526	504	1	64	40	23	
14	0	0	0	0	529	501	3	0	40	23	
15	0	0	0	0	529	500	2	0	40	23	
0	0	0	0	0	525	499	2	0	40	23	
1	0	0	0	0	510	502	2	0	40	23	
2	0	0	0	0	503	507	3	0	40	23	
3	0	0	0	0	495	511	3	0	40	23	
4	0	0	0	0	496	513	1	0	40	24	
5	0	0	0	0	496	514	3	972	40	23	
6	0	0	0	0	504	513	3	1018	40	24	
7	0	0	0	0	511	512	2	1018	40	23	
8	0	0	0	0	515	509	1	1018	40	24	
9	0	0	0	0	514	510	2	1018	40	23	
10	0	0	0	0	512	510	2	1018	40	23	
11	0	0	0	0	513	510	3	1018	40	23	
12	0	0	0	0	519	510	3	849	40	23	
13	0	0	0	0	522	507	2	440	40	23	
14	0	0	0	0	529	505	2	42	40	23	
15	0	0	0	0	530	504	2	0	40	23	
0	0	0	0	0	529	504	2	0	40	24	
1	0	0	0	0	519	502	2	0	40	23	
2	0	0	0	0	505	504	1	0	40	23	
3	0	0	0	0	498	509	1	0	40	23	
4	0	0	0	0	495	512	2	0	40	23	
5	0	0	0	0	496	513	2	0	40	23	
6	0	0	0	0	501	514	1	699	40	23	
7	0	0	0	0	505	513	0	1017	40	23	
8	0	0	0	0	515	513	3	1019	40	24	
9	0	0	0	0	515	511	0	1018	40	23	
10	0	0	0	0	514	512	1	825	40	24	
11	0	0	0	0	510	513	1	643	40	23	
12	0	0	0	0	515	510	3	401	40	23	
13	0	0	0	0	521	508	1	135	40	23	
14	0	0	0	0	523	506	2	0	40	23	
15	0	0	0	0	527	504	2	0	40	23	
0	0	0	0	0	528	503	3	0	40	23	
1	0	0	0	0	529	502	2	0	40	23	
2	0	0	0	0	519	504	3	0	40	23	
3	0	0	0	0	505	506	2	0	40	23	
4	0	0	0	0	499	508	1	0	40	23	
5	0	0	0	0	498	509	2	0	40	23	
6	0	0	0	0	498	510	1	340	40	23	
7	0	0	0	0	498	513	0	982	40	23	
8	0	0	0	0	505	513	3	1018	40	23	
9	0	0	0	0	513	512	1	1018	40	23	
10	0	0	0	0	513	511	3	1018	40	23	
11	0	0	0	0	512	512	0	1018	40	23	
12	0	0	0	0	513	511	4	737	40	23	
13	0	0	0	0	517	507	2	491	40	23	
14	0	0	0	0	520	507	3	232	40	23	
15	0	0	0	0	525	504	2	0	40	23	
0	0	0	0	0	529	501	3	0	40	23	
1	0	0	0	0	530	501	2	0	40	23	
2	0	0	0	0	524	503	1	0	40	23	
3	0	0	0	0	511	507	1	0	40	23	
4	0	0	0	0	503	507	3	0	40	23	
5	0	0	0	0	497	510	1	0	40	23	
6	0	0	0	0	496	512	1	0	40	23	
7	0	0	0	0	497	513	0	932	40	23	
8	0	0	0	0	504	515	3	1019	40	24	
9	0	0	0	0	511	513	1	1019	40	23	
10	0	0	0	0	517	513	0	1018	40	23	
11	0	0	0	0	515	513	1	1018	40	23	
12	0	0	0	0	514	512	1	1019	40	23	
13	0	0	0	0	514	511	1	1018	40	23	
14	0	0	0	0	518	509	3	627	40	23	
15	0	0	0	0	523	509	2	291	40	23	
0	0	0	0	0	525	505	1	0	40	23	
1	0	0	0	0	527	504	2	0	40	23	
2	0	0	0	0	529	505	3	0	40	23	
3	0	0	0	0	520	505	1	0	40	23	
4	0	0	0	0	506	509	2	0	40	23	
5	0	0	0	0	500	510	1	0	40	23	
6	0	0	0	0	495	514	0	0	40	23	
7	0	0	0	0	496	517	0	521	40	23	
8	0	0	0	0	498	515	2	1018	40	23	
9	0	0	0	0	505	514	0	1018	40	23	
10	0	0	0	0	510	512	2	1018	40	23	
11	0	0	0	0	514	510	2	1018	40	23	
12	0	0	0	0	512	511	3	1019	40	24	
13	0	0	0	0	513	511	2	1018	40	23	
14	0	0	0	0	514	510	2	1018	40	23	
15	0	0	0	0	519	509	2	729	40	23	
0	0	0	0	0	523	505	1	378	40	23	
1	0	0	0	0	528	504	2	45	40	23	
2	0	0	0	0	529	501	1	0	40	23	
3	0	0	0	0	527	502	1	0	40	23	
4	0	0	0	0	515	506	2	0	40	23	
5	0	0	0	0	503	509	1	0	40	23	
6	0	0	0	0	500	512	1	0	40	23	
7	0	0	0	0	498	515	1	229	40	23	
8	0	0	0	0	497	516	2	913	40	23	
9	0	0	0	0	503	515	1	1019	40	23	
10	0	0	0	0	508	516	1	1018	40	23	
11	0	0	0	0	514	515	0	1018	40	23	
12	0	0	0	0	515	513	3	1019	40	23	
13	0	0	0	0	507	512	1	1018	40	23	
14	0	0	0	0	512	512	1	1018	40	23	
15	0	0	0	0	516	511	2	1018	40	23	
0	0	0	0	0	524	511	3	608	40	23	
1	0	0	0	0	528	509	2	198	40	23	
2	0	0	0	0	529	506	3	0	40	23	
3	0	0	0	0	531	505	2	0	40	23	
4	0	0	0	0	524	502	2	0	40	23	
5	0	0	0	0	513	508	3	0	40	23	
6	0	0	0	0	504	510	1	0	40	23	
7	0	0	0	0	495	512	1	0	40	23	
8	0	0	0	0	496	513	3	301	40	23	
9	0	0	0	0	498	513	1	954	40	23	
10	0	0	0	0	503	513	1	1018	40	23	
11	0	0	0	0	511	513	1	1018	40	23	
12	0	0	0	0	514	511	3	1018	40	23	
13	0	0	0	0	512	511	2	1018	40	23	
14	0	0	0	0	513	513	3	1018	40	23	
15	0	0	0	0	515	513	2	1017	40	23	
0	0	0	0	0	518	510	3	833	40	23	
1	0	0	0	0	519	508	2	497	40	23	
2	0	0	0	0	527	506	3	141	40	23	
3	0	0	0	0	528	505	2	0	40	23	
4	0	0	0	0	531	504	2	0	40	24	
5	0	0	0	0	519	505	2	0	40	23	
6	0	0	0	0	506	507	1	0	40	23	
7	0	0	0	0	499	512	1	0	40	23	
8	0	0	0	0	497	514	3	0	40	23	
9	0	0	0	0	496	516	1	551	40	23	
10	0	0	0	0	502	516	1	1018	40	23	
11	0	0	0	0	506	518	1	1018	40	23	
12	0	0	0	0	511	515	3	1019	40	23	
13	0	0	0	0	516	513	3	1018	40	23	
14	0	0	0	0	512	514	3	1018	40	23	
15	0	0	0	0	512	514	2	1017	40	23	
0	0	0	0	0	516	511	2	638	40	23	
1	0	0	0	0	519	509	3	376	40	23	
2	0	0	0	0	524	508	2	91	40	23	
3	0	0	0	0	529	507	2	0	40	23	
4	0	0	0	0	529	504	1	0	40	23	
