# OpenSignals Text File Format. Version 1
# {"0C:43:14:1C:2A:02": {"position": 0, "device": "bitalino_rev", "device name": "0C:43:14:1C:2A:02", "device connection": "BTH0C:43:14:1C:2A:02", "sampling rate": 1000, "resolution": [4, 1, 1, 1, 1, 10, 10, 10, 10, 6, 6], "firmware version": 1282, "comments": "", "keywords": "", "mode": 0, "sync interval": 2, "date": "2026-4-17", "time": "12:52:39.347", "channels": [1, 2, 3, 4, 5, 6], "sensor": ["RAW", "RAW", "RAW", "RAW", "RAW", "RAW"], "label": ["A1", "A2", "A3", "A4", "A5", "A6"], "column": ["nSeq", "I1", "I2", "O1", "O2", "A1", "A2", "A3", "A4", "A5", "A6"], "special": [{}, {}, {}, {}, {}, {}], "digital IO": [0, 0, 1, 1]}}
# EndOfHeader
0	0	0	0	0	515	511	3	1018	40	21	
1	0	0	0	0	516	511	3	1018	40	21	
2	0	0	0	0	512	509	3	1018	40	21	
3	0	0	0	0	512	506	2	1018	40	21	
4	0	0	0	0	510	505	2	1019	40	21	
5	0	0	0	0	508	503	1	1018	40	21	
6	0	0	0	0	509	508	1	0	40	21	
7	0	0	0	0	513	513	0	0	40	21	
8	0	0	0	0	515	516	2	0	40	21	
9	0	0	0	0	515	519	1	0	40	21	
10	0	0	0	0	514	519	2	0	40	21	
11	0	0	0	0	513	519	2	0	40	21	
12	0	0	0	0	517	517	3	0	40	21	
13	0	0	0	0	516	514	3	1018	40	21	
14	0	0	0	0	514	512	1	1018	40	21	
15	0	0	0	0	514	512	2	1018	40	21	
0	0	0	0	0	512	511	3	1019	40	21	
1	0	0	0	0	515	508	1	1018	40	21	
2	0	0	0	0	511	505	0	1018	40	21	
3	0	0	0	0	509	505	0	1018	40	21	
4	0	0	0	0	507	504	1	1019	40	21	
5	0	0	0	0	507	502	0	1018	40	21	
6	0	0	0	0	503	502	0	1018	40	21	
7	0	0	0	0	508	504	0	0	40	21	
8	0	0	0	0	514	511	2	0	40	21	
9	0	0	0	0	514	513	0	0	40	21	
10	0	0	0	0	513	513	0	0	40	21	
11	0	0	0	0	516	516	0	0	40	21	
12	0	0	0	0	515	516	3	0	40	21	
13	0	0	0	0	508	513	1	0	40	21	
14	0	0	0	0	514	509	1	0	40	21	
15	0	0	0	0	517	511	1	1017	40	21	
0	0	0	0	0	512	510	2	1019	40	21	
1	0	0	0	0	514	508	1	1018	40	21	
2	0	0	0	0	517	508	1	1018	40	21	
3	0	0	0	0	513	507	0	1018	40	21	
4	0	0	0	0	509	504	2	1019	40	21	
5	0	0	0	0	504	501	0	1018	40	21	
6	0	0	0	0	499	499	0	0	40	21	
7	0	0	0	0	503	503	0	0	40	21	
8	0	0	0	0	512	508	1	0	40	21	
9	0	0	0	0	513	511	2	0	40	21	
10	0	0	0	0	515	515	2	0	40	21	
11	0	0	0	0	515	515	1	0	40	21	
12	0	0	0	0	516	517	3	0	40	21	
13	0	0	0	0	516	516	3	0	40	21	
14	0	0	0	0	513	515	3	0	40	21	
15	0	0	0	0	511	514	3	0	40	21	
0	0	0	0	0	516	513	3	0	40	21	
1	0	0	0	0	514	513	3	0	40	21	
2	0	0	0	0	513	513	2	1017	40	21	
3	0	0	0	0	512	511	2	1018	40	21	
4	0	0	0	0	511	507	1	1019	40	21	
5	0	0	0	0	508	504	0	0	40	21	
6	0	0	0	0	506	501	0	0	40	21	
7	0	0	0	0	504	501	0	0	40	21	
8	0	0	0	0	503	506	1	0	40	21	
9	0	0	0	0	512	509	0	0	40	21	
10	0	0	0	0	513	513	0	0	40	21	
11	0	0	0	0	519	517	0	0	40	21	
12	0	0	0	0	521	519	2	0	40	21	
13	0	0	0	0	517	517	0	0	40	21	
14	0	0	0	0	519	516	1	0	40	21	
15	0	0	0	0	515	514	1	0	40	21	
0	0	0	0	0	512	511	3	0	40	21	
1	0	0	0	0	515	511	3	0	40	21	
2	0	0	0	0	515	511	3	0	40	21	
3	0	0	0	0	513	509	2	830	40	21	
4	0	0	0	0	511	508	2	1017	40	21	
5	0	0	0	0	509	506	2	496	40	21	
6	0	0	0	0	509	504	1	0	40	21	
7	0	0	0	0	508	502	1	0	40	21	
8	0	0	0	0	508	504	1	0	40	21	
9	0	0	0	0	508	507	2	0	40	21	
10	0	0	0	0	514	511	1	0	40	21	
11	0	0	0	0	515	516	1	0	40	21	
12	0	0	0	0	517	517	2	0	40	21	
13	0	0	0	0	520	516	1	0	40	21	
14	0	0	0	0	515	515	0	0	40	21	
15	0	0	0	0	513	515	1	0	40	21	
0	0	0	0	0	508	515	3	0	40	21	
1	0	0	0	0	514	512	1	0	40	21	
2	0	0	0	0	513	513	0	0	40	21	
3	0	0	0	0	513	511	0	0	40	21	
4	0	0	0	0	511	510	3	1018	40	21	
5	0	0	0	0	509	507	0	1018	40	21	
6	0	0	0	0	508	506	2	1018	40	21	
7	0	0	0	0	510	503	1	0	40	21	
8	0	0	0	0	499	501	3	0	40	21	
9	0	0	0	0	509	503	1	0	40	21	
10	0	0	0	0	514	507	2	0	40	21	
11	0	0	0	0	513	511	2	0	40	21	
12	0	0	0	0	518	511	2	0	40	21	
13	0	0	0	0	517	511	2	0	40	21	
14	0	0	0	0	522	516	1	0	40	21	
15	0	0	0	0	520	515	1	0	40	21	
0	0	0	0	0	518	512	2	0	40	21	
1	0	0	0	0	515	511	1	613	40	21	
2	0	0	0	0	510	511	1	1018	40	21	
3	0	0	0	0	512	513	0	1018	40	21	
4	0	0	0	0	510	511	4	1019	40	21	
5	0	0	0	0	507	510	0	1018	40	21	
6	0	0	0	0	511	507	1	1018	40	21	
7	0	0	0	0	507	504	0	1018	40	21	
8	0	0	0	0	505	503	2	1019	40	21	
9	0	0	0	0	500	500	0	0	40	21	
10	0	0	0	0	502	504	0	0	40	21	
11	0	0	0	0	504	509	1	0	40	21	
12	0	0	0	0	510	514	3	0	40	21	
13	0	0	0	0	511	514	1	0	40	21	
14	0	0	0	0	514	513	2	0	40	21	
15	0	0	0	0	511	513	3	0	40	21	
0	0	0	0	0	517	513	2	0	40	21	
1	0	0	0	0	516	513	3	0	40	21	
2	0	0	0	0	514	513	3	0	40	21	
3	0	0	0	0	517	515	3	699	40	21	
4	0	0	0	0	512	515	3	1019	40	21	
5	0	0	0	0	514	512	3	1018	40	21	
6	0	0	0	0	518	509	2	1018	40	21	
7	0	0	0	0	512	507	1	1018	40	21	
8	0	0	0	0	511	504	1	0	40	21	
9	0	0	0	0	505	504	0	0	40	21	
10	0	0	0	0	511	503	0	0	40	21	
11	0	0	0	0	515	508	0	0	40	21	
12	0	0	0	0	523	509	1	0	40	21	
13	0	0	0	0	524	513	0	0	40	21	
14	0	0	0	0	525	515	0	0	40	21	
15	0	0	0	0	528	515	0	0	40	21	
0	0	0	0	0	530	513	2	0	40	21	
1	0	0	0	0	529	513	1	0	40	21	
2	0	0	0	0	526	512	1	0	40	21	
3	0	0	0	0	518	513	0	0	40	21	
4	0	0	0	0	519	514	3	0	40	21	
5	0	0	0	0	516	512	1	0	40	21	
6	0	0	0	0	512	511	0	0	40	21	
7	0	0	0	0	511	508	0	0	40	21	
8	0	0	0	0	508	504	2	0	40	21	
9	0	0	0	0	510	500	0	0	40	21	
10	0	0	0	0	511	500	0	0	40	21	
11	0	0	0	0	514	502	0	0	40	21	
12	0	0	0	0	512	508	2	0	40	21	
13	0	0	0	0	509	511	0	0	40	21	
14	0	0	0	0	514	513	0	0	40	21	
15	0	0	0	0	512	515	0	0	40	21	
0	0	0	0	0	515	516	2	0	40	21	
1	0	0	0	0	511	516	2	0	40	21	
2	0	0	0	0	508	515	2	0	40	21	
3	0	0	0	0	505	512	1	0	40	21	
4	0	0	0	0	509	512	2	0	40	21	
5	0	0	0	0	505	512	3	1018	40	21	
6	0	0	0	0	506	510	2	1018	40	21	
7	0	0	0	0	505	508	2	1018	40	21	
8	0	0	0	0	508	507	2	1019	40	21	
9	0	0	0	0	503	504	1	1018	40	21	
10	0	0	0	0	499	504	0	250	40	21	
11	0	0	0	0	506	502	1	0	40	21	
12	0	0	0	0	507	506	1	0	40	21	
13	0	0	0	0	511	507	1	0	40	21	
14	0	0	0	0	515	511	2	0	40	21	
15	0	0	0	0	515	516	1	0	40	21	
0	0	0	0	0	511	515	1	0	40	21	
1	0	0	0	0	515	516	3	0	40	21	
2	0	0	0	0	516	515	3	0	40	21	
3	0	0	0	0	512	512	3	1018	40	21	
4	0	0	0	0	512	512	3	1018	40	21	
5	0	0	0	0	511	509	3	1018	40	21	
6	0	0	0	0	510	510	4	1018	40	21	
7	0	0	0	0	517	510	3	1018	40	21	
8	0	0	0	0	508	508	3	1019	40	21	
9	0	0	0	0	509	505	2	1018	40	21	
10	0	0	0	0	506	504	2	1018	40	21	
11	0	0	0	0	507	502	1	1018	40	21	
12	0	0	0	0	507	501	2	1019	40	21	
13	0	0	0	0	512	504	1	123	40	21	
14	0	0	0	0	515	509	1	0	40	21	
15	0	0	0	0	522	512	1	0	40	21	
0	0	0	0	0	519	514	3	0	40	21	
1	0	0	0	0	515	516	3	0	40	21	
2	0	0	0	0	516	515	4	1018	40	21	
3	0	0	0	0	518	514	3	1018	40	21	
4	0	0	0	0	519	512	5	1018	40	21	
5	0	0	0	0	518	512	3	1018	40	21	
6	0	0	0	0	518	515	4	1018	40	21	
7	0	0	0	0	510	513	3	1018	40	21	
8	0	0	0	0	506	511	3	1019	40	21	
9	0	0	0	0	510	509	3	1018	40	21	
10	0	0	0	0	510	508	3	1018	40	21	
11	0	0	0	0	511	505	1	1018	40	21	
12	0	0	0	0	507	503	2	1019	40	21	
13	0	0	0	0	507	503	0	1018	40	21	
14	0	0	0	0	516	507	1	1018	40	21	
15	0	0	0	0	518	512	2	1017	40	21	
0	0	0	0	0	519	517	3	0	40	21	
1	0	0	0	0	515	517	3	1018	40	21	
2	0	0	0	0	515	519	3	1018	40	21	
3	0	0	0	0	517	520	3	1018	40	21	
4	0	0	0	0	518	516	4	1018	40	21	
5	0	0	0	0	516	513	3	1018	40	21	
6	0	0	0	0	516	514	3	1018	40	21	
7	0	0	0	0	517	516	2	1018	40	21	
8	0	0	0	0	512	513	3	1019	40	21	
9	0	0	0	0	508	510	3	1018	40	21	
10	0	0	0	0	507	509	3	1018	40	21	
11	0	0	0	0	505	506	3	1018	40	21	
12	0	0	0	0	505	501	1	1018	40	21	
13	0	0	0	0	504	498	1	1018	40	21	
14	0	0	0	0	509	501	1	1018	40	21	
15	0	0	0	0	514	508	1	1018	40	21	
0	0	0	0	0	514	512	1	1017	40	21	
1	0	0	0	0	518	513	3	1018	40	21	
2	0	0	0	0	518	516	3	1018	40	21	
3	0	0	0	0	518	518	3	1018	40	21	
4	0	0	0	0	521	517	4	1019	40	21	
5	0	0	0	0	514	513	3	1018	40	21	
6	0	0	0	0	513	513	3	1018	40	21	
7	0	0	0	0	515	513	3	1018	40	21	
8	0	0	0	0	514	512	3	1019	40	21	
9	0	0	0	0	513	511	3	1018	40	21	
10	0	0	0	0	511	510	3	1018	40	21	
11	0	0	0	0	507	510	3	1018	40	21	
12	0	0	0	0	506	508	3	1019	40	21	
13	0	0	0	0	505	502	2	1018	40	21	
14	0	0	0	0	504	502	0	1018	40	21	
15	0	0	0	0	510	504	0	1018	40	21	
0	0	0	0	0	517	510	1	0	40	21	
1	0	0	0	0	515	514	0	0	40	21	
2	0	0	0	0	512	517	1	0	40	21	
3	0	0	0	0	513	519	1	0	40	21	
4	0	0	0	0	518	518	3	1018	40	21	
5	0	0	0	0	515	517	2	1018	40	21	
6	0	0	0	0	512	515	3	1018	40	21	
7	0	0	0	0	512	515	2	1018	40	21	
8	0	0	0	0	513	515	2	1019	40	21	
9	0	0	0	0	515	513	3	1018	40	21	
10	0	0	0	0	511	512	3	1018	40	21	
11	0	0	0	0	506	510	3	1018	40	21	
12	0	0	0	0	507	506	4	1019	40	21	
13	0	0	0	0	515	504	2	1018	40	21	
14	0	0	0	0	507	500	1	1018	40	21	
15	0	0	0	0	512	501	1	1018	40	21	
0	0	0	0	0	523	506	1	0	40	21	
1	0	0	0	0	519	510	2	0	40	21	
2	0	0	0	0	520	514	1	0	40	21	
3	0	0	0	0	513	517	2	0	40	21	
4	0	0	0	0	511	516	4	0	40	21	
5	0	0	0	0	511	517	3	1018	40	21	
6	0	0	0	0	508	516	3	1018	40	21	
7	0	0	0	0	511	515	2	1018	40	21	
8	0	0	0	0	513	513	4	1019	40	21	
9	0	0	0	0	515	512	2	1018	40	21	
10	0	0	0	0	516	510	2	1018	40	21	
11	0	0	0	0	514	510	2	1018	40	21	
12	0	0	0	0	512	506	2	1019	40	21	
13	0	0	0	0	512	504	2	1018	40	21	
14	0	0	0	0	512	502	0	1018	40	21	
15	0	0	0	0	515	499	0	1018	40	21	
0	0	0	0	0	517	499	1	1018	40	21	
1	0	0	0	0	517	504	0	0	40	21	
2	0	0	0	0	515	511	1	0	40	21	
3	0	0	0	0	514	515	1	0	40	21	
4	0	0	0	0	516	515	3	0	40	21	
5	0	0	0	0	517	515	4	0	40	21	
6	0	0	0	0	508	514	3	1018	40	21	
7	0	0	0	0	506	512	3	1018	40	21	
8	0	0	0	0	512	512	3	1019	40	21	
9	0	0	0	0	509	509	4	1018	40	21	
10	0	0	0	0	513	509	3	1018	40	21	
11	0	0	0	0	512	508	3	1018	40	21	
12	0	0	0	0	504	505	3	1019	40	21	
13	0	0	0	0	507	503	3	1018	40	21	
14	0	0	0	0	510	503	3	1018	40	21	
15	0	0	0	0	509	499	2	1018	40	21	
0	0	0	0	0	509	498	0	1018	40	21	
1	0	0	0	0	512	500	1	1018	40	21	
2	0	0	0	0	512	507	2	1018	40	21	
3	0	0	0	0	517	511	2	1017	40	21	
4	0	0	0	0	518	513	3	1018	40	21	
5	0	0	0	0	517	515	3	1018	40	21	
6	0	0	0	0	517	515	3	1018	40	21	
7	0	0	0	0	515	515	3	1018	40	21	
8	0	0	0	0	514	512	4	1019	40	21	
9	0	0	0	0	511	511	3	1018	40	21	
10	0	0	0	0	510	511	3	1018	40	21	
11	0	0	0	0	507	511	3	1018	40	21	
12	0	0	0	0	507	511	4	1019	40	21	
13	0	0	0	0	511	508	3	1018	40	21	
14	0	0	0	0	505	505	3	1018	40	21	
15	0	0	0	0	505	503	3	1018	40	21	
0	0	0	0	0	508	502	3	1019	40	21	
1	0	0	0	0	512	500	1	1018	40	21	
2	0	0	0	0	514	506	2	1018	40	21	
3	0	0	0	0	515	511	2	1017	40	21	
4	0	0	0	0	520	515	3	729	40	21	
5	0	0	0	0	521	516	3	1018	40	21	
6	0	0	0	0	523	517	2	1018	40	21	
7	0	0	0	0	521	517	2	1018	40	21	
8	0	0	0	0	515	515	3	1019	40	21	
9	0	0	0	0	519	511	1	1018	40	21	
10	0	0	0	0	511	512	1	1018	40	21	
11	0	0	0	0	517	513	0	1018	40	21	
12	0	0	0	0	513	509	3	1018	40	21	
13	0	0	0	0	511	506	1	1018	40	21	
14	0	0	0	0	509	504	1	1018	40	21	
15	0	0	0	0	504	502	1	1018	40	21	
0	0	0	0	0	504	501	3	1019	40	21	
1	0	0	0	0	503	498	0	1018	40	21	
2	0	0	0	0	509	503	0	1017	40	21	
3	0	0	0	0	516	508	1	0	40	21	
4	0	0	0	0	511	513	3	0	40	21	
5	0	0	0	0	512	515	2	0	40	21	
6	0	0	0	0	508	517	3	0	40	21	
7	0	0	0	0	515	516	3	0	40	21	
8	0	0	0	0	521	515	4	0	40	21	
9	0	0	0	0	514	513	3	1018	40	21	
10	0	0	0	0	515	514	3	1018	40	21	
11	0	0	0	0	520	516	3	1018	40	21	
12	0	0	0	0	518	514	3	1019	40	21	
13	0	0	0	0	511	512	3	1018	40	21	
14	0	0	0	0	510	508	2	1018	40	21	
15	0	0	0	0	508	505	1	1018	40	21	
0	0	0	0	0	506	502	2	1018	40	21	
1	0	0	0	0	504	500	1	1018	40	21	
2	0	0	0	0	504	500	1	1018	40	21	
3	0	0	0	0	509	503	0	0	40	21	
4	0	0	0	0	508	508	1	0	40	21	
5	0	0	0	0	517	512	2	0	40	21	
6	0	0	0	0	518	515	3	0	40	21	
7	0	0	0	0	516	517	3	0	40	21	
8	0	0	0	0	512	517	3	0	40	21	
9	0	0	0	0	516	514	3	409	40	21	
10	0	0	0	0	515	513	4	1018	40	21	
11	0	0	0	0	514	515	3	1018	40	21	
12	0	0	0	0	518	513	4	1019	40	21	
13	0	0	0	0	512	511	3	1018	40	21	
14	0	0	0	0	511	512	3	1018	40	21	
15	0	0	0	0	512	509	3	1018	40	21	
0	0	0	0	0	508	505	3	1018	40	21	
1	0	0	0	0	507	502	2	1018	40	21	
2	0	0	0	0	502	501	1	1018	40	21	
3	0	0	0	0	507	502	0	0	40	21	
4	0	0	0	0	509	505	1	0	40	21	
5	0	0	0	0	512	511	1	0	40	21	
6	0	0	0	0	519	515	2	0	40	21	
7	0	0	0	0	517	515	2	0	40	21	
8	0	0	0	0	518	519	4	0	40	21	
9	0	0	0	0	518	516	3	0	40	21	
10	0	0	0	0	519	515	4	1018	40	21	
11	0	0	0	0	515	513	3	1018	40	21	
12	0	0	0	0	515	513	3	1019	40	21	
13	0	0	0	0	517	512	3	1018	40	21	
14	0	0	0	0	515	511	2	1018	40	21	
15	0	0	0	0	511	509	2	1018	40	21	
0	0	0	0	0	507	508	3	1018	40	21	
1	0	0	0	0	508	504	1	1018	40	21	
2	0	0	0	0	503	502	0	1018	40	21	
3	0	0	0	0	503	502	0	1018	40	21	
4	0	0	0	0	506	504	0	0	40	21	
5	0	0	0	0	511	508	0	0	40	21	
6	0	0	0	0	515	510	0	0	40	21	
7	0	0	0	0	512	514	0	0	40	21	
8	0	0	0	0	513	515	3	0	40	21	
9	0	0	0	0	518	516	2	0	40	21	
10	0	0	0	0	518	515	3	0	40	21	
11	0	0	0	0	517	513	3	1018	40	21	
12	0	0	0	0	519	511	4	1019	40	21	
13	0	0	0	0	518	508	3	1018	40	21	
14	0	0	0	0	516	511	3	1018	40	21	
15	0	0	0	0	517	510	3	1018	40	21	
0	0	0	0	0	504	508	2	1017	40	21	
1	0	0	0	0	504	506	3	1018	40	21	
2	0	0	0	0	507	504	3	1018	40	21	
3	0	0	0	0	508	499	1	1018	40	21	
4	0	0	0	0	511	497	1	1019	40	21	
5	0	0	0	0	507	500	0	0	40	21	
6	0	0	0	0	511	506	0	0	40	21	
7	0	0	0	0	518	511	1	0	40	21	
8	0	0	0	0	524	514	3	0	40	21	
9	0	0	0	0	516	515	3	0	40	21	
10	0	0	0	0	519	515	3	944	40	21	
11	0	0	0	0	520	514	2	1018	40	21	
12	0	0	0	0	516	510	3	1019	40	21	
13	0	0	0	0	515	508	2	1018	40	21	
14	0	0	0	0	514	509	1	1018	40	21	
15	0	0	0	0	511	511	1	1018	40	21	
0	0	0	0	0	511	509	3	1019	40	21	
1	0	0	0	0	511	506	1	1018	40	21	
2	0	0	0	0	506	506	1	1018	40	21	
3	0	0	0	0	509	503	1	1018	40	21	
4	0	0	0	0	512	500	2	1018	40	21	
5	0	0	0	0	511	501	0	1018	40	21	
6	0	0	0	0	513	506	2	1018	40	21	
7	0	0	0	0	511	511	2	0	40	21	
8	0	0	0	0	520	515	3	0	40	21	
9	0	0	0	0	522	515	3	0	40	21	
10	0	0	0	0	519	517	3	1018	40	21	
11	0	0	0	0	519	515	3	1018	40	21	
12	0	0	0	0	516	514	4	1019	40	21	
13	0	0	0	0	510	512	3	1018	40	21	
14	0	0	0	0	513	515	3	1018	40	21	
15	0	0	0	0	515	514	3	1018	40	21	
0	0	0	0	0	511	513	3	1018	40	21	
1	0	0	0	0	507	511	2	1018	40	21	
2	0	0	0	0	511	508	1	1018	40	21	
3	0	0	0	0	509	507	1	1018	40	21	
4	0	0	0	0	504	503	3	1018	40	21	
5	0	0	0	0	507	499	0	1018	40	21	
6	0	0	0	0	508	505	0	1018	40	21	
7	0	0	0	0	509	510	0	0	40	21	
8	0	0	0	0	513	514	2	0	40	21	
9	0	0	0	0	518	515	0	0	40	21	
10	0	0	0	0	515	516	1	0	40	21	
11	0	0	0	0	516	516	1	0	40	21	
12	0	0	0	0	518	515	2	1018	40	21	
13	0	0	0	0	516	513	2	1018	40	21	
14	0	0	0	0	515	509	3	1018	40	21	
15	0	0	0	0	516	510	3	1018	40	21	
0	0	0	0	0	515	512	4	1019	40	21	
1	0	0	0	0	510	510	3	1018	40	21	
2	0	0	0	0	511	508	3	1018	40	21	
3	0	0	0	0	508	508	3	1018	40	21	
4	0	0	0	0	512	504	3	1019	40	21	
5	0	0	0	0	510	501	2	1018	40	21	
6	0	0	0	0	507	500	0	1018	40	21	
7	0	0	0	0	510	504	0	0	40	21	
8	0	0	0	0	511	508	1	0	40	21	
9	0	0	0	0	512	513	1	0	40	21	
10	0	0	0	0	514	517	2	0	40	21	
11	0	0	0	0	517	518	2	0	40	21	
12	0	0	0	0	518	516	4	0	40	21	
13	0	0	0	0	518	516	2	1018	40	21	
14	0	0	0	0	516	515	2	1018	40	21	
15	0	0	0	0	515	514	2	1018	40	21	
0	0	0	0	0	514	515	2	1019	40	21	
1	0	0	0	0	509	513	2	1018	40	21	
2	0	0	0	0	510	511	1	1018	40	21	
3	0	0	0	0	510	507	1	1018	40	21	
4	0	0	0	0	509	504	2	1018	40	21	
5	0	0	0	0	511	502	1	1018	40	21	
6	0	0	0	0	509	501	0	1018	40	21	
7	0	0	0	0	509	503	0	1018	40	21	
8	0	0	0	0	511	508	3	636	40	21	
9	0	0	0	0	510	511	0	0	40	21	
10	0	0	0	0	514	515	2	0	40	21	
11	0	0	0	0	512	516	3	0	40	21	
12	0	0	0	0	513	518	4	727	40	21	
13	0	0	0	0	511	515	3	1018	40	21	
14	0	0	0	0	514	514	3	1018	40	21	
15	0	0	0	0	513	512	3	1018	40	21	
0	0	0	0	0	513	513	4	1019	40	21	
1	0	0	0	0	510	512	3	1018	40	21	
2	0	0	0	0	512	512	3	1018	40	21	
3	0	0	0	0	513	509	3	1018	40	21	
4	0	0	0	0	515	507	3	1018	40	21	
5	0	0	0	0	508	503	3	1018	40	21	
6	0	0	0	0	512	500	1	1018	40	21	
7	0	0	0	0	514	499	0	1018	40	21	
8	0	0	0	0	517	500	1	0	40	21	
9	0	0	0	0	516	504	0	0	40	21	
10	0	0	0	0	512	509	0	0	40	21	
11	0	0	0	0	511	513	0	0	40	21	
12	0	0	0	0	516	516	3	0	40	21	
13	0	0	0	0	519	516	2	0	40	21	
14	0	0	0	0	511	515	3	0	40	21	
15	0	0	0	0	512	515	3	0	40	21	
0	0	0	0	0	518	515	3	1019	40	21	
1	0	0	0	0	513	515	3	1018	40	21	
2	0	0	0	0	510	516	3	1018	40	21	
3	0	0	0	0	513	513	3	1018	40	21	
4	0	0	0	0	509	511	3	1018	40	21	
5	0	0	0	0	504	507	2	1018	40	21	
6	0	0	0	0	510	504	0	1018	40	21	
7	0	0	0	0	508	502	0	1018	40	21	
8	0	0	0	0	506	502	2	0	40	21	
9	0	0	0	0	510	504	0	0	40	21	
10	0	0	0	0	511	512	1	0	40	21	
11	0	0	0	0	513	515	2	0	40	21	
12	0	0	0	0	514	517	3	0	40	21	
13	0	0	0	0	518	517	3	0	40	21	
14	0	0	0	0	521	517	2	0	40	21	
15	0	0	0	0	515	516	1	0	40	21	
0	0	0	0	0	512	512	4	1018	40	21	
1	0	0	0	0	513	511	1	1018	40	21	
2	0	0	0	0	514	512	3	1018	40	21	
3	0	0	0	0	515	512	3	1018	40	21	
4	0	0	0	0	513	510	3	1018	40	21	
5	0	0	0	0	510	508	3	1018	40	21	
6	0	0	0	0	508	507	3	1018	40	21	
7	0	0	0	0	510	503	0	1018	40	21	
8	0	0	0	0	511	503	2	1019	40	21	
9	0	0	0	0	513	502	1	1017	40	21	
10	0	0	0	0	513	507	0	0	40	21	
11	0	0	0	0	514	511	0	0	40	21	
12	0	0	0	0	518	515	3	0	40	21	
13	0	0	0	0	518	515	1	0	40	21	
14	0	0	0	0	521	518	1	0	40	21	
15	0	0	0	0	515	517	3	0	40	21	
0	0	0	0	0	516	515	2	1017	40	21	
1	0	0	0	0	516	514	3	1018	40	21	
2	0	0	0	0	513	515	3	1018	40	21	
3	0	0	0	0	509	515	3	1018	40	21	
4	0	0	0	0	510	515	3	1019	40	21	
5	0	0	0	0	512	511	3	1018	40	21	
6	0	0	0	0	507	509	2	1018	40	21	
7	0	0	0	0	506	505	1	1018	40	21	
8	0	0	0	0	508	505	1	1018	40	21	
9	0	0	0	0	506	504	0	1018	40	21	
10	0	0	0	0	503	508	0	0	40	21	
11	0	0	0	0	512	512	0	0	40	21	
12	0	0	0	0	517	514	1	0	40	21	
13	0	0	0	0	516	517	0	0	40	21	
14	0	0	0	0	516	519	1	0	40	21	
15	0	0	0	0	517	518	2	0	40	21	
0	0	0	0	0	516	518	4	0	40	21	
1	0	0	0	0	511	514	3	1018	40	21	
2	0	0	0	0	513	513	3	1018	40	21	
3	0	0	0	0	514	514	3	1018	40	21	
4	0	0	0	0	509	513	3	1018	40	21	
5	0	0	0	0	514	511	3	1018	40	21	
6	0	0	0	0	514	508	3	1018	40	21	
7	0	0	0	0	505	510	1	1017	40	21	
8	0	0	0	0	506	506	2	1019	40	21	
9	0	0	0	0	505	503	0	1018	40	21	
10	0	0	0	0	508	502	0	0	40	21	
11	0	0	0	0	512	505	0	0	40	21	
12	0	0	0	0	518	510	2	0	40	21	
13	0	0	0	0	515	515	2	0	40	21	
14	0	0	0	0	512	517	3	0	40	21	
15	0	0	0	0	519	517	3	0	40	21	
0	0	0	0	0	519	515	4	0	40	21	
1	0	0	0	0	520	515	3	0	40	21	
2	0	0	0	0	519	514	2	0	40	21	
3	0	0	0	0	518	513	2	1018	40	21	
4	0	0	0	0	521	513	4	1019	40	21	
5	0	0	0	0	519	510	1	1018	40	21	
6	0	0	0	0	512	510	1	1018	40	21	
7	0	0	0	0	510	508	3	1018	40	21	
8	0	0	0	0	505	504	2	1019	40	21	
9	0	0	0	0	508	502	1	1018	40	21	
10	0	0	0	0	505	502	1	1018	40	21	
11	0	0	0	0	504	504	0	0	40	21	
12	0	0	0	0	508	508	1	0	40	21	
13	0	0	0	0	511	511	0	0	40	21	
14	0	0	0	0	515	516	0	0	40	21	
15	0	0	0	0	515	517	0	0	40	21	
0	0	0	0	0	516	520	4	0	40	21	
1	0	0	0	0	516	518	3	0	40	21	
2	0	0	0	0	518	516	3	856	40	21	
3	0	0	0	0	513	513	3	1018	40	21	
4	0	0	0	0	510	511	2	1018	40	21	
5	0	0	0	0	509	510	3	1018	40	21	
6	0	0	0	0	504	510	3	1018	40	21	
7	0	0	0	0	512	508	3	1018	40	21	
8	0	0	0	0	507	506	4	1019	40	21	
9	0	0	0	0	507	502	3	1018	40	21	
10	0	0	0	0	508	503	2	1018	40	21	
11	0	0	0	0	508	502	0	1018	40	21	
12	0	0	0	0	509	505	1	1018	40	21	
13	0	0	0	0	515	508	0	0	40	21	
14	0	0	0	0	522	511	0	0	40	21	
15	0	0	0	0	524	512	0	0	40	21	
0	0	0	0	0	522	517	4	0	40	21	
1	0	0	0	0	519	517	2	1018	40	21	
2	0	0	0	0	519	518	3	1018	40	21	
3	0	0	0	0	515	514	3	1018	40	21	
4	0	0	0	0	512	512	4	1019	40	21	
5	0	0	0	0	515	511	3	1018	40	21	
6	0	0	0	0	515	512	2	1018	40	21	
7	0	0	0	0	511	511	1	1018	40	21	
8	0	0	0	0	511	507	3	1017	40	21	
9	0	0	0	0	507	504	0	1018	40	21	
10	0	0	0	0	504	503	1	1018	40	21	
11	0	0	0	0	512	504	1	1018	40	21	
12	0	0	0	0	511	504	0	1018	40	21	
13	0	0	0	0	504	509	1	1018	40	21	
14	0	0	0	0	513	514	1	769	40	21	
15	0	0	0	0	513	517	2	0	40	21	
0	0	0	0	0	517	520	3	340	40	21	
1	0	0	0	0	519	521	3	1018	40	21	
2	0	0	0	0	520	519	2	1018	40	21	
3	0	0	0	0	517	517	1	1018	40	21	
4	0	0	0	0	515	513	2	1019	40	21	
5	0	0	0	0	513	512	1	1018	40	21	
6	0	0	0	0	512	513	3	1018	40	21	
7	0	0	0	0	513	512	3	1018	40	21	
8	0	0	0	0	515	511	4	1019	40	21	
9	0	0	0	0	511	507	3	1018	40	21	
10	0	0	0	0	507	504	3	1018	40	21	
11	0	0	0	0	504	505	3	1018	40	21	
12	0	0	0	0	506	501	1	1018	40	21	
13	0	0	0	0	505	501	0	1018	40	21	
14	0	0	0	0	509	505	0	0	40	21	
15	0	0	0	0	509	510	0	0	40	21	
0	0	0	0	0	508	514	3	0	40	21	
1	0	0	0	0	516	517	2	0	40	21	
2	0	0	0	0	523	517	3	0	40	21	
3	0	0	0	0	519	515	3	0	40	21	
4	0	0	0	0	515	515	4	1018	40	21	
5	0	0	0	0	516	511	3	1018	40	21	
6	0	0	0	0	512	512	3	1018	40	21	
7	0	0	0	0	511	513	2	1018	40	21	
8	0	0	0	0	506	511	3	1018	40	21	
9	0	0	0	0	509	508	1	1018	40	21	
10	0	0	0	0	509	506	0	1018	40	21	
11	0	0	0	0	504	504	0	1018	40	21	
12	0	0	0	0	505	501	0	1018	40	21	
13	0	0	0	0	507	498	1	1018	40	21	
14	0	0	0	0	509	501	0	0	40	21	
15	0	0	0	0	512	505	0	0	40	21	
0	0	0	0	0	513	509	3	0	40	21	
1	0	0	0	0	524	512	2	0	40	21	
2	0	0	0	0	523	516	3	0	40	21	
3	0	0	0	0	526	516	4	0	40	21	
4	0	0	0	0	519	516	4	0	40	21	
5	0	0	0	0	517	515	4	0	40	21	
6	0	0	0	0	520	514	3	1018	40	21	
7	0	0	0	0	520	514	2	1018	40	21	
8	0	0	0	0	516	512	3	1019	40	21	
9	0	0	0	0	512	510	2	1018	40	21	
10	0	0	0	0	513	508	1	1018	40	21	
11	0	0	0	0	511	507	0	1018	40	21	
12	0	0	0	0	507	504	2	1019	40	21	
13	0	0	0	0	505	500	0	1018	40	21	
14	0	0	0	0	504	499	1	1018	40	21	
15	0	0	0	0	503	502	0	0	40	21	
0	0	0	0	0	509	508	1	0	40	21	
1	0	0	0	0	513	511	2	0	40	21	
2	0	0	0	0	518	514	3	0	40	21	
3	0	0	0	0	516	515	3	0	40	21	
4	0	0	0	0	516	514	3	0	40	21	
5	0	0	0	0	514	511	2	0	40	21	
6	0	0	0	0	511	509	2	1018	40	21	
7	0	0	0	0	515	512	1	1018	40	21	
8	0	0	0	0	512	511	3	1018	40	21	
9	0	0	0	0	513	511	1	1018	40	21	
10	0	0	0	0	515	512	1	1018	40	21	
11	0	0	0	0	513	511	3	1018	40	21	
12	0	0	0	0	505	505	2	1018	40	21	
13	0	0	0	0	506	503	2	1018	40	21	
14	0	0	0	0	507	502	1	1018	40	21	
15	0	0	0	0	511	503	0	0	40	21	
0	0	0	0	0	512	506	1	0	40	21	
1	0	0	0	0	511	512	1	0	40	21	
2	0	0	0	0	514	516	1	0	40	21	
3	0	0	0	0	517	518	1	0	40	21	
4	0	0	0	0	515	518	4	0	40	21	
5	0	0	0	0	513	516	1	0	40	21	
6	0	0	0	0	515	514	2	693	40	21	
7	0	0	0	0	514	512	1	1018	40	21	
8	0	0	0	0	510	512	4	1019	40	21	
9	0	0	0	0	510	512	3	1018	40	21	
10	0	0	0	0	510	512	3	1018	40	21	
11	0	0	0	0	512	508	3	1018	40	21	
12	0	0	0	0	512	507	4	1019	40	21	
13	0	0	0	0	509	504	3	1019	40	21	
14	0	0	0	0	513	503	1	1018	40	21	
15	0	0	0	0	511	500	0	1018	40	21	
0	0	0	0	0	516	503	1	0	40	21	
1	0	0	0	0	520	508	0	0	40	21	
2	0	0	0	0	516	512	0	0	40	21	
3	0	0	0	0	515	516	0	0	40	21	
4	0	0	0	0	513	519	4	0	40	21	
5	0	0	0	0	513	518	2	0	40	21	
6	0	0	0	0	515	518	3	0	40	21	
7	0	0	0	0	515	515	3	1018	40	21	
8	0	0	0	0	515	514	4	1019	40	21	
9	0	0	0	0	515	512	3	1018	40	21	
10	0	0	0	0	512	514	3	1018	40	21	
11	0	0	0	0	512	512	3	1018	40	21	
12	0	0	0	0	508	509	3	1018	40	21	
13	0	0	0	0	503	506	2	1018	40	21	
14	0	0	0	0	505	503	0	1018	40	21	
15	0	0	0	0	502	503	0	1018	40	21	
0	0	0	0	0	512	501	0	1018	40	21	
1	0	0	0	0	510	503	0	0	40	21	
2	0	0	0	0	511	508	0	0	40	21	
3	0	0	0	0	512	512	0	0	40	21	
4	0	0	0	0	519	515	4	0	40	21	
5	0	0	0	0	514	514	2	0	40	21	
6	0	0	0	0	513	515	3	0	40	21	
7	0	0	0	0	519	514	3	774	40	21	
8	0	0	0	0	519	513	5	1019	40	21	
9	0	0	0	0	513	510	3	1018	40	21	
10	0	0	0	0	515	511	3	1018	40	21	
11	0	0	0	0	515	512	3	1018	40	21	
12	0	0	0	0	514	512	3	1019	40	21	
13	0	0	0	0	505	508	2	1018	40	21	
14	0	0	0	0	504	507	1	1018	40	21	
15	0	0	0	0	512	506	1	1018	40	21	
0	0	0	0	0	509	504	2	1019	40	21	
1	0	0	0	0	512	504	0	1018	40	21	
2	0	0	0	0	516	509	0	0	40	21	
3	0	0	0	0	516	512	2	0	40	21	
4	0	0	0	0	519	515	3	0	40	21	
5	0	0	0	0	519	518	3	0	40	21	
6	0	0	0	0	519	519	3	0	40	21	
7	0	0	0	0	517	519	3	1015	40	21	
8	0	0	0	0	517	516	4	1019	40	21	
9	0	0	0	0	511	513	3	1018	40	21	
10	0	0	0	0	510	514	3	1018	40	21	
11	0	0	0	0	511	514	3	1018	40	21	
12	0	0	0	0	516	512	3	1018	40	21	
13	0	0	0	0	513	509	3	1018	40	21	
14	0	0	0	0	508	508	3	1018	40	21	
15	0	0	0	0	508	504	3	1018	40	21	
0	0	0	0	0	508	500	2	1019	40	21	
1	0	0	0	0	506	496	1	1018	40	21	
2	0	0	0	0	513	499	0	0	40	21	
3	0	0	0	0	515	504	0	0	40	21	
4	0	0	0	0	513	511	1	0	40	21	
5	0	0	0	0	513	513	2	0	40	21	
6	0	0	0	0	516	517	3	0	40	21	
7	0	0	0	0	517	519	3	0	40	21	
8	0	0	0	0	516	517	3	0	40	21	
9	0	0	0	0	512	514	3	0	40	21	
10	0	0	0	0	511	513	2	1018	40	21	
11	0	0	0	0	514	514	2	1018	40	21	
12	0	0	0	0	514	513	3	1019	40	21	
13	0	0	0	0	511	510	2	1018	40	21	
14	0	0	0	0	508	508	1	1018	40	21	
15	0	0	0	0	510	507	0	1018	40	21	
0	0	0	0	0	505	505	1	1019	40	21	
1	0	0	0	0	502	503	0	1017	40	21	
2	0	0	0	0	502	503	0	0	40	21	
3	0	0	0	0	506	507	0	0	40	21	
4	0	0	0	0	508	510	1	0	40	21	
5	0	0	0	0	515	513	1	0	40	21	
6	0	0	0	0	517	517	2	0	40	21	
7	0	0	0	0	524	518	2	0	40	21	
8	0	0	0	0	521	519	4	0	40	21	
9	0	0	0	0	518	516	3	0	40	21	
10	0	0	0	0	518	515	2	0	40	21	
11	0	0	0	0	516	512	2	0	40	21	
12	0	0	0	0	518	512	2	0	40	21	
13	0	0	0	0	515	512	2	1018	40	21	
14	0	0	0	0	519	513	0	1018	40	21	
15	0	0	0	0	512	510	0	1018	40	21	
0	0	0	0	0	508	508	3	1019	40	21	
1	0	0	0	0	508	504	0	1018	40	21	
2	0	0	0	0	505	501	0	0	40	21	
3	0	0	0	0	504	503	0	0	40	21	
4	0	0	0	0	508	508	2	0	40	21	
5	0	0	0	0	510	511	1	0	40	21	
6	0	0	0	0	512	514	1	0	40	21	
7	0	0	0	0	512	515	2	0	40	21	
8	0	0	0	0	519	518	3	0	40	21	
9	0	0	0	0	518	516	3	0	40	21	
10	0	0	0	0	512	517	3	0	40	21	
11	0	0	0	0	513	515	3	0	40	21	
12	0	0	0	0	512	516	3	0	40	21	
13	0	0	0	0	508	514	3	0	40	21	
14	0	0	0	0	511	512	3	0	40	21	
15	0	0	0	0	510	509	3	1011	40	21	
0	0	0	0	0	511	507	2	1018	40	21	
1	0	0	0	0	507	502	2	520	40	21	
2	0	0	0	0	510	501	1	0	40	21	
3	0	0	0	0	511	499	0	0	40	21	
4	0	0	0	0	513	501	1	0	40	21	
5	0	0	0	0	512	505	0	0	40	21	
6	0	0	0	0	516	511	0	0	40	21	
7	0	0	0	0	516	513	0	0	40	21	
8	0	0	0	0	519	515	3	0	40	21	
9	0	0	0	0	514	517	1	0	40	21	
10	0	0	0	0	518	518	1	0	40	21	
11	0	0	0	0	514	515	1	0	40	21	
12	0	0	0	0	515	513	2	0	40	21	
13	0	0	0	0	512	512	3	0	40	21	
14	0	0	0	0	509	512	3	1018	40	21	
15	0	0	0	0	513	510	3	1018	40	21	
0	0	0	0	0	511	509	4	1019	40	21	
1	0	0	0	0	508	506	2	1018	40	21	
2	0	0	0	0	511	503	2	1018	40	21	
3	0	0	0	0	505	501	1	0	40	21	
4	0	0	0	0	501	499	0	0	40	21	
5	0	0	0	0	510	501	0	0	40	21	
6	0	0	0	0	513	507	0	0	40	21	
7	0	0	0	0	519	514	0	0	40	21	
8	0	0	0	0	519	516	3	0	40	21	
9	0	0	0	0	519	515	1	0	40	21	
10	0	0	0	0	513	516	1	0	40	21	
11	0	0	0	0	512	518	1	0	40	21	
12	0	0	0	0	509	515	3	0	40	21	
13	0	0	0	0	517	514	2	0	40	21	
14	0	0	0	0	517	514	3	1018	40	21	
15	0	0	0	0	513	514	3	1018	40	21	
0	0	0	0	0	513	511	3	1019	40	21	
1	0	0	0	0	511	508	3	1018	40	21	
2	0	0	0	0	509	503	3	1018	40	21	
3	0	0	0	0	508	502	2	1018	40	21	
4	0	0	0	0	506	502	1	1019	40	21	
5	0	0	0	0	508	500	0	341	40	21	
6	0	0	0	0	511	506	0	0	40	21	
7	0	0	0	0	511	511	0	0	40	21	
8	0	0	0	0	514	514	2	0	40	21	
9	0	0	0	0	515	515	0	0	40	21	
10	0	0	0	0	514	519	1	0	40	21	
11	0	0	0	0	519	519	2	830	40	21	
12	0	0	0	0	515	518	4	1019	40	21	
13	0	0	0	0	512	514	2	1018	40	21	
14	0	0	0	0	510	514	3	1018	40	21	
15	0	0	0	0	511	515	2	1018	40	21	
0	0	0	0	0	512	512	2	1019	40	21	
1	0	0	0	0	508	509	3	1018	40	21	
2	0	0	0	0	507	508	3	1018	40	21	
3	0	0	0	0	507	507	2	1018	40	21	
4	0	0	0	0	506	506	3	1019	40	21	
5	0	0	0	0	500	502	1	1018	40	21	
6	0	0	0	0	507	502	1	1018	40	21	
7	0	0	0	0	511	507	1	0	40	21	
8	0	0	0	0	512	511	3	0	40	21	
9	0	0	0	0	512	514	3	0	40	21	
10	0	0	0	0	517	514	2	0	40	21	
11	0	0	0	0	515	515	2	0	40	21	
12	0	0	0	0	518	513	4	1019	40	21	
13	0	0	0	0	515	511	2	1018	40	21	
14	0	0	0	0	517	510	1	1018	40	21	
15	0	0	0	0	516	511	1	1018	40	21	
0	0	0	0	0	519	511	3	1019	40	21	
1	0	0	0	0	521	510	1	1018	40	21	
2	0	0	0	0	518	509	3	1018	40	21	
3	0	0	0	0	515	507	2	1018	40	21	
4	0	0	0	0	519	503	3	1019	40	21	
5	0	0	0	0	518	499	1	1018	40	21	
6	0	0	0	0	518	499	1	1018	40	21	
7	0	0	0	0	519	500	0	0	40	21	
8	0	0	0	0	526	507	1	0	40	21	
9	0	0	0	0	527	509	2	0	40	21	
10	0	0	0	0	526	512	3	0	40	21	
11	0	0	0	0	524	515	3	0	40	21	
12	0	0	0	0	519	517	4	0	40	21	
13	0	0	0	0	519	513	3	0	40	21	
14	0	0	0	0	516	511	4	1018	40	21	
15	0	0	0	0	513	511	4	1018	40	21	
0	0	0	0	0	509	510	4	1018	40	21	
1	0	0	0	0	507	509	3	1018	40	21	
2	0	0	0	0	508	507	3	1018	40	21	
3	0	0	0	0	508	506	3	1018	40	21	
4	0	0	0	0	503	503	4	1019	40	21	
5	0	0	0	0	501	499	2	1018	40	21	
6	0	0	0	0	501	498	1	1018	40	21	
7	0	0	0	0	504	499	0	0	40	21	
8	0	0	0	0	506	505	2	0	40	21	
9	0	0	0	0	510	507	1	0	40	21	
10	0	0	0	0	513	513	2	0	40	21	
11	0	0	0	0	512	515	2	0	40	21	
12	0	0	0	0	513	516	3	0	40	21	
13	0	0	0	0	508	516	3	0	40	21	
14	0	0	0	0	507	516	3	0	40	21	
15	0	0	0	0	507	513	3	0	40	21	
0	0	0	0	0	507	512	3	1018	40	21	
1	0	0	0	0	509	512	3	1018	40	21	
2	0	0	0	0	512	511	3	1018	40	21	
3	0	0	0	0	508	511	3	1018	40	21	
4	0	0	0	0	505	507	3	1018	40	21	
5	0	0	0	0	504	504	2	1018	40	21	
6	0	0	0	0	506	502	1	431	40	21	
7	0	0	0	0	507	500	0	0	40	21	
8	0	0	0	0	507	500	0	0	40	21	
9	0	0	0	0	511	506	1	0	40	21	
10	0	0	0	0	516	511	1	0	40	21	
11	0	0	0	0	514	514	0	0	40	21	
12	0	0	0	0	519	514	1	0	40	21	
13	0	0	0	0	519	514	3	0	40	21	
14	0	0	0	0	522	513	3	0	40	21	
15	0	0	0	0	520	514	2	0	40	21	
0	0	0	0	0	519	510	1	0	40	21	
1	0	0	0	0	514	509	2	0	40	21	
2	0	0	0	0	515	511	2	0	40	21	
3	0	0	0	0	516	509	2	0	40	21	
4	0	0	0	0	515	508	3	0	40	21	
5	0	0	0	0	506	504	1	0	40	21	
6	0	0	0	0	505	502	1	0	40	21	
7	0	0	0	0	500	500	1	0	40	21	
8	0	0	0	0	505	500	0	0	40	21	
9	0	0	0	0	507	506	1	0	40	21	
10	0	0	0	0	510	511	1	0	40	21	
11	0	0	0	0	515	513	1	0	40	21	
12	0	0	0	0	514	515	2	0	40	21	
13	0	0	0	0	515	516	1	0	40	21	
14	0	0	0	0	511	516	2	0	40	21	
15	0	0	0	0	519	515	2	0	40	21	
0	0	0	0	0	512	514	3	0	40	21	
1	0	0	0	0	515	513	2	0	40	21	
2	0	0	0	0	513	515	1	0	40	21	
3	0	0	0	0	511	513	0	0	40	21	
4	0	0	0	0	505	512	1	0	40	21	
5	0	0	0	0	507	509	0	0	40	21	
6	0	0	0	0	510	505	0	0	40	21	
7	0	0	0	0	507	503	0	0	40	21	
8	0	0	0	0	508	503	1	0	40	21	
9	0	0	0	0	509	505	0	0	40	21	
10	0	0	0	0	515	510	2	0	40	21	
11	0	0	0	0	514	515	1	0	40	21	
12	0	0	0	0	518	519	2	0	40	21	
13	0	0	0	0	522	519	1	0	40	21	
14	0	0	0	0	519	519	1	0	40	21	
15	0	0	0	0	518	519	2	0	40	21	
0	0	0	0	0	518	517	3	0	40	21	
1	0	0	0	0	514	512	2	0	40	21	
2	0	0	0	0	513	512	3	0	40	21	
3	0	0	0	0	513	513	2	0	40	21	
4	0	0	0	0	511	511	2	0	40	21	
5	0	0	0	0	507	508	1	0	40	21	
6	0	0	0	0	508	506	0	0	40	21	
7	0	0	0	0	507	505	0	0	40	21	
8	0	0	0	0	505	504	1	0	40	21	
9	0	0	0	0	505	501	0	0	40	21	
10	0	0	0	0	508	504	0	0	40	21	
11	0	0	0	0	517	508	0	0	40	21	
12	0	0	0	0	517	511	3	0	40	21	
13	0	0	0	0	510	514	1	0	40	21	
14	0	0	0	0	518	517	2	0	40	21	
15	0	0	0	0	519	516	1	0	40	21	
0	0	0	0	0	516	514	0	0	40	21	
1	0	0	0	0	512	512	2	0	40	21	
2	0	0	0	0	515	509	1	0	40	21	
3	0	0	0	0	514	509	0	0	40	21	
4	0	0	0	0	518	508	1	0	40	21	
5	0	0	0	0	514	506	0	0	40	21	
6	0	0	0	0	508	503	0	0	40	21	
7	0	0	0	0	506	501	0	0	40	21	
8	0	0	0	0	504	498	2	0	40	21	
9	0	0	0	0	502	497	0	0	40	21	
10	0	0	0	0	505	497	2	0	40	21	
11	0	0	0	0	509	503	1	0	40	21	
12	0	0	0	0	513	508	2	0	40	21	
13	0	0	0	0	516	510	2	0	40	21	
14	0	0	0	0	518	511	2	0	40	21	
15	0	0	0	0	521	513	2	0	40	21	
0	0	0	0	0	514	514	2	0	40	21	
1	0	0	0	0	509	513	1	0	40	21	
2	0	0	0	0	510	511	1	0	40	21	
3	0	0	0	0	512	512	1	0	40	21	
4	0	0	0	0	514	511	1	0	40	21	
5	0	0	0	0	513	509	1	0	40	21	
6	0	0	0	0	511	507	0	0	40	21	
7	0	0	0	0	507	505	0	0	40	21	
8	0	0	0	0	504	502	1	0	40	21	
9	0	0	0	0	510	502	0	0	40	21	
10	0	0	0	0	514	500	0	0	40	21	
11	0	0	0	0	514	504	1	0	40	21	
12	0	0	0	0	518	507	3	0	40	21	
13	0	0	0	0	517	510	2	0	40	21	
14	0	0	0	0	520	513	1	0	40	21	
15	0	0	0	0	521	515	1	0	40	21	
0	0	0	0	0	522	518	3	0	40	21	
1	0	0	0	0	518	517	2	0	40	21	
2	0	0	0	0	513	516	2	0	40	21	
3	0	0	0	0	510	514	1	0	40	21	
4	0	0	0	0	511	513	1	0	40	21	
5	0	0	0	0	506	514	1	0	40	21	
6	0	0	0	0	508	512	0	0	40	21	
7	0	0	0	0	511	511	0	0	40	21	
8	0	0	0	0	508	508	2	0	40	21	
9	0	0	0	0	503	506	0	0	40	21	
10	0	0	0	0	502	504	0	0	40	21	
11	0	0	0	0	508	503	2	0	40	21	
12	0	0	0	0	509	504	3	0	40	21	
13	0	0	0	0	510	508	2	0	40	21	
14	0	0	0	0	513	512	2	0	40	21	
15	0	0	0	0	512	515	2	0	40	21	
0	0	0	0	0	514	517	2	0	40	21	
1	0	0	0	0	513	516	2	0	40	21	
2	0	0	0	0	515	513	1	0	40	21	
3	0	0	0	0	519	512	0	0	40	21	
4	0	0	0	0	519	512	2	0	40	21	
5	0	0	0	0	520	510	1	0	40	21	
6	0	0	0	0	517	511	0	0	40	21	
7	0	0	0	0	516	510	0	0	40	21	
8	0	0	0	0	515	510	2	0	40	21	
9	0	0	0	0	512	507	0	0	40	21	
10	0	0	0	0	512	504	0	0	40	21	
11	0	0	0	0	510	504	0	0	40	21	
12	0	0	0	0	510	504	1	0	40	21	
13	0	0	0	0	510	505	0	0	40	21	
14	0	0	0	0	510	510	0	0	40	21	
15	0	0	0	0	511	516	0	0	40	21	
0	0	0	0	0	516	517	3	0	40	21	
1	0	0	0	0	513	517	2	0	40	21	
2	0	0	0	0	515	518	2	0	40	21	
3	0	0	0	0	512	517	1	0	40	21	
4	0	0	0	0	509	514	3	0	40	21	
5	0	0	0	0	509	511	2	0	40	21	
6	0	0	0	0	514	511	2	0	40	21	
7	0	0	0	0	512	510	1	0	40	21	
8	0	0	0	0	515	509	2	0	40	21	
9	0	0	0	0	514	506	0	0	40	21	
10	0	0	0	0	510	504	0	0	40	21	
11	0	0	0	0	507	501	0	0	40	21	
12	0	0	0	0	505	499	2	0	40	21	
13	0	0	0	0	509	497	0	0	40	21	
14	0	0	0	0	514	502	0	0	40	21	
15	0	0	0	0	516	505	0	0	40	21	
0	0	0	0	0	518	510	1	0	40	21	
1	0	0	0	0	513	511	0	0	40	21	
2	0	0	0	0	514	511	0	0	40	21	
3	0	0	0	0	515	513	0	0	40	21	
4	0	0	0	0	513	511	1	0	40	21	
5	0	0	0	0	510	509	0	0	40	21	
6	0	0	0	0	510	508	0	0	40	21	
7	0	0	0	0	509	508	0	0	40	21	
8	0	0	0	0	508	507	2	0	40	21	
9	0	0	0	0	509	505	0	0	40	21	
10	0	0	0	0	510	504	0	0	40	21	
11	0	0	0	0	507	502	0	0	40	21	
12	0	0	0	0	507	504	2	0	40	21	
13	0	0	0	0	507	500	2	0	40	21	
14	0	0	0	0	512	504	2	0	40	21	
15	0	0	0	0	514	509	2	0	40	21	
0	0	0	0	0	516	514	3	0	40	21	
1	0	0	0	0	520	515	1	0	40	21	
2	0	0	0	0	520	515	2	0	40	21	
3	0	0	0	0	520	515	1	0	40	21	
4	0	0	0	0	518	514	0	0	40	21	
5	0	0	0	0	516	513	2	0	40	21	
6	0	0	0	0	512	512	1	0	40	21	
7	0	0	0	0	508	513	2	0	40	21	
8	0	0	0	0	509	512	2	0	40	21	
9	0	0	0	0	510	511	2	0	40	21	
10	0	0	0	0	504	508	0	0	40	21	
11	0	0	0	0	502	508	0	0	40	21	
12	0	0	0	0	511	503	2	0	40	21	
13	0	0	0	0	508	502	0	0	40	21	
14	0	0	0	0	511	501	0	0	40	21	
15	0	0	0	0	510	503	0	0	40	21	
0	0	0	0	0	512	508	2	0	40	21	
1	0	0	0	0	516	512	2	0	40	21	
2	0	0	0	0	521	515	2	0	40	21	
3	0	0	0	0	520	515	2	0	40	21	
4	0	0	0	0	515	515	3	0	40	21	
5	0	0	0	0	517	514	1	0	40	21	
6	0	0	0	0	512	512	2	0	40	21	
7	0	0	0	0	514	510	2	0	40	21	
8	0	0	0	0	514	510	2	0	40	21	
9	0	0	0	0	509	508	2	0	40	21	
10	0	0	0	0	508	506	1	0	40	21	
11	0	0	0	0	510	506	1	0	40	21	
12	0	0	0	0	507	505	1	0	40	21	
13	0	0	0	0	507	501	0	0	40	21	
14	0	0	0	0	505	499	0	0	40	21	
15	0	0	0	0	509	501	0	0	40	21	
0	0	0	0	0	510	503	3	0	40	21	
1	0	0	0	0	519	509	0	0	40	21	
2	0	0	0	0	523	514	0	0	40	21	
3	0	0	0	0	516	516	0	0	40	21	
4	0	0	0	0	520	515	2	0	40	21	
5	0	0	0	0	518	516	0	0	40	21	
6	0	0	0	0	511	514	2	0	40	21	
7	0	0	0	0	510	513	2	0	40	21	
8	0	0	0	0	513	512	1	0	40	21	
9	0	0	0	0	511	514	2	0	40	21	
10	0	0	0	0	512	512	3	0	40	21	
11	0	0	0	0	511	509	2	0	40	21	
12	0	0	0	0	509	508	2	0	40	21	
13	0	0	0	0	508	504	1	0	40	21	
14	0	0	0	0	511	503	0	0	40	21	
15	0	0	0	0	509	502	0	0	40	21	
0	0	0	0	0	509	505	2	0	40	21	
1	0	0	0	0	512	507	0	0	40	21	
2	0	0	0	0	519	512	0	0	40	21	
3	0	0	0	0	517	514	0	0	40	21	
4	0	0	0	0	517	516	1	0	40	21	
5	0	0	0	0	520	517	2	0	40	21	
6	0	0	0	0	517	515	2	0	40	21	
7	0	0	0	0	515	515	2	0	40	21	
8	0	0	0	0	514	511	1	0	40	21	
9	0	0	0	0	516	510	3	0	40	21	
10	0	0	0	0	510	511	3	963	40	21	
11	0	0	0	0	510	508	1	1018	40	21	
12	0	0	0	0	511	506	2	1019	40	21	
13	0	0	0	0	505	503	0	1018	40	21	
14	0	0	0	0	500	502	0	1018	40	21	
15	0	0	0	0	505	501	0	0	40	21	
0	0	0	0	0	507	504	1	0	40	21	
1	0	0	0	0	511	509	0	0	40	21	
2	0	0	0	0	517	512	2	0	40	21	
3	0	0	0	0	519	515	1	0	40	21	
4	0	0	0	0	519	518	3	0	40	21	
5	0	0	0	0	516	520	2	0	40	21	
6	0	0	0	0	517	518	3	0	40	21	
7	0	0	0	0	520	516	1	0	40	21	
8	0	0	0	0	517	513	3	518	40	21	
9	0	0	0	0	514	512	1	1018	40	21	
10	0	0	0	0	521	512	1	1018	40	21	
11	0	0	0	0	518	512	1	1018	40	21	
12	0	0	0	0	508	512	4	1019	40	21	
13	0	0	0	0	507	508	2	1018	40	21	
14	0	0	0	0	511	506	2	1018	40	21	
15	0	0	0	0	515	506	1	1018	40	21	
0	0	0	0	0	512	503	1	1018	40	21	
1	0	0	0	0	510	505	2	1018	40	21	
2	0	0	0	0	511	509	1	0	40	21	
3	0	0	0	0	514	515	2	0	40	21	
4	0	0	0	0	514	517	2	0	40	21	
5	0	0	0	0	516	518	2	0	40	21	
6	0	0	0	0	519	517	3	0	40	21	
7	0	0	0	0	519	516	3	1018	40	21	
8	0	0	0	0	516	515	4	1019	40	21	
9	0	0	0	0	516	512	4	1018	40	21	
10	0	0	0	0	513	511	3	1018	40	21	
11	0	0	0	0	513	512	2	1018	40	21	
12	0	0	0	0	512	511	3	1019	40	21	
13	0	0	0	0	507	509	2	1018	40	21	
14	0	0	0	0	508	507	1	1018	40	21	
15	0	0	0	0	508	504	0	1018	40	21	
0	0	0	0	0	507	502	1	1019	40	21	
1	0	0	0	0	505	500	0	1018	40	21	
2	0	0	0	0	505	502	0	1018	40	21	
3	0	0	0	0	511	506	0	1017	40	21	
4	0	0	0	0	516	510	1	0	40	21	
5	0	0	0	0	515	510	0	0	40	21	
6	0	0	0	0	518	512	3	0	40	21	
7	0	0	0	0	521	512	1	0	40	21	
8	0	0	0	0	514	513	4	1019	40	21	
9	0	0	0	0	507	512	3	1018	40	21	
10	0	0	0	0	516	512	3	1018	40	21	
11	0	0	0	0	519	513	3	1018	40	21	
12	0	0	0	0	513	512	3	1018	40	21	
13	0	0	0	0	516	511	2	1018	40	21	
14	0	0	0	0	511	509	0	1018	40	21	
15	0	0	0	0	509	507	0	1018	40	21	
0	0	0	0	0	506	504	1	1018	40	21	
1	0	0	0	0	508	502	0	1018	40	21	
2	0	0	0	0	508	503	1	1018	40	21	
3	0	0	0	0	507	507	1	0	40	21	
4	0	0	0	0	513	510	0	0	40	21	
5	0	0	0	0	519	513	2	0	40	21	
6	0	0	0	0	515	515	1	0	40	21	
7	0	0	0	0	523	517	2	0	40	21	
8	0	0	0	0	511	516	3	0	40	21	
9	0	0	0	0	509	515	1	0	40	21	
10	0	0	0	0	516	514	2	1018	40	21	
11	0	0	0	0	519	514	1	1018	40	21	
12	0	0	0	0	515	514	3	1018	40	21	
13	0	0	0	0	512	513	2	1018	40	20	
14	0	0	0	0	510	511	3	1018	40	21	
15	0	0	0	0	512	510	2	1018	40	21	
0	0	0	0	0	507	506	3	1019	40	21	
1	0	0	0	0	511	500	1	1018	40	21	
2	0	0	0	0	507	498	1	1018	40	21	
3	0	0	0	0	503	500	0	0	40	21	
4	0	0	0	0	508	506	1	0	40	21	
5	0	0	0	0	513	510	1	0	40	21	
6	0	0	0	0	512	515	0	0	40	21	
7	0	0	0	0	511	514	0	0	40	20	
8	0	0	0	0	520	517	3	0	40	21	
9	0	0	0	0	518	516	1	0	40	21	
10	0	0	0	0	514	514	2	0	40	21	
11	0	0	0	0	513	511	3	1018	40	21	
12	0	0	0	0	510	513	3	1018	40	21	
13	0	0	0	0	512	512	2	1018	40	21	
14	0	0	0	0	507	512	3	1018	40	21	
15	0	0	0	0	508	511	3	1018	40	21	
0	0	0	0	0	511	506	2	1019	40	21	
1	0	0	0	0	509	502	2	1018	40	20	
2	0	0	0	0	510	501	0	1017	40	21	
3	0	0	0	0	506	501	0	0	40	20	
4	0	0	0	0	507	503	2	0	40	21	
5	0	0	0	0	514	508	0	0	40	20	
6	0	0	0	0	513	512	0	0	40	20	
7	0	0	0	0	519	516	1	0	40	21	
8	0	0	0	0	519	518	3	0	40	21	
9	0	0	0	0	519	517	3	0	40	21	
10	0	0	0	0	521	515	3	0	40	20	
11	0	0	0	0	513	513	3	0	40	20	
12	0	0	0	0	517	514	3	0	40	21	
13	0	0	0	0	514	512	3	1018	40	20	
14	0	0	0	0	512	513	3	1018	40	21	
15	0	0	0	0	512	512	3	1018	40	20	
0	0	0	0	0	512	510	3	1019	40	21	
1	0	0	0	0	511	507	0	1018	40	20	
2	0	0	0	0	508	503	0	1018	40	20	
3	0	0	0	0	501	502	0	484	40	20	
4	0	0	0	0	503	502	1	0	40	21	
5	0	0	0	0	508	503	0	0	40	20	
6	0	0	0	0	512	508	1	0	40	21	
7	0	0	0	0	513	512	1	0	40	20	
8	0	0	0	0	514	516	3	0	40	21	
9	0	0	0	0	516	517	2	0	40	20	
10	0	0	0	0	517	514	3	0	40	20	
11	0	0	0	0	515	514	3	0	40	20	
12	0	0	0	0	512	512	3	0	40	21	
13	0	0	0	0	515	511	2	1018	40	20	
14	0	0	0	0	522	514	2	1018	40	20	
15	0	0	0	0	520	513	1	1018	40	20	
0	0	0	0	0	514	510	3	1018	40	20	
1	0	0	0	0	513	508	0	1018	40	20	
2	0	0	0	0	506	505	1	1018	40	20	
3	0	0	0	0	508	504	1	1018	40	20	
4	0	0	0	0	506	501	2	1019	40	21	
5	0	0	0	0	508	502	1	0	40	20	
6	0	0	0	0	507	507	1	0	40	20	
7	0	0	0	0	510	512	1	0	40	20	
8	0	0	0	0	516	516	3	0	40	20	
9	0	0	0	0	519	513	2	0	40	20	
10	0	0	0	0	512	516	2	0	40	20	
11	0	0	0	0	518	515	2	0	40	20	
12	0	0	0	0	516	513	3	0	40	20	
13	0	0	0	0	513	509	2	1018	40	20	
14	0	0	0	0	516	511	1	1018	40	20	
15	0	0	0	0	516	511	1	1018	40	20	
0	0	0	0	0	509	509	3	1018	40	20	
1	0	0	0	0	507	508	1	1018	40	20	
2	0	0	0	0	510	505	2	1018	40	20	
3	0	0	0	0	507	502	1	1018	40	20	
4	0	0	0	0	505	500	2	1018	40	20	
5	0	0	0	0	505	498	1	0	40	20	
6	0	0	0	0	511	501	2	0	40	20	
7	0	0	0	0	514	508	1	0	40	20	
8	0	0	0	0	519	512	1	0	40	20	
9	0	0	0	0	522	515	1	0	40	20	
10	0	0	0	0	520	518	0	0	40	20	
11	0	0	0	0	516	518	1	0	40	20	
12	0	0	0	0	512	516	3	0	40	20	
13	0	0	0	0	513	513	1	0	40	20	
14	0	0	0	0	514	513	2	1018	40	20	
15	0	0	0	0	516	512	1	1018	40	20	
0	0	0	0	0	509	511	4	1018	40	20	
1	0	0	0	0	510	510	3	1018	40	20	
2	0	0	0	0	509	509	3	1018	40	20	
3	0	0	0	0	507	507	2	1018	40	20	
4	0	0	0	0	507	503	1	1018	40	20	
5	0	0	0	0	508	502	1	1018	40	20	
6	0	0	0	0	506	502	1	0	40	20	
7	0	0	0	0	510	506	1	0	40	20	
8	0	0	0	0	515	511	1	0	40	20	
9	0	0	0	0	522	513	0	0	40	20	
10	0	0	0	0	520	515	0	0	40	20	
11	0	0	0	0	517	518	0	0	40	20	
12	0	0	0	0	518	515	3	0	40	20	
13	0	0	0	0	516	514	1	0	40	20	
14	0	0	0	0	511	514	3	1018	40	20	
15	0	0	0	0	512	513	3	1018	40	20	
0	0	0	0	0	509	514	3	1018	40	20	
1	0	0	0	0	505	512	3	1018	40	20	
2	0	0	0	0	508	511	3	1018	40	20	
3	0	0	0	0	506	510	3	1018	40	20	
4	0	0	0	0	505	505	2	1019	40	20	
5	0	0	0	0	508	502	1	1018	40	20	
6	0	0	0	0	510	503	0	1018	40	20	
7	0	0	0	0	511	505	0	0	40	20	
8	0	0	0	0	514	509	0	0	40	20	
9	0	0	0	0	517	511	0	0	40	20	
10	0	0	0	0	520	516	0	0	40	20	
11	0	0	0	0	521	518	0	0	40	20	
12	0	0	0	0	521	522	3	0	40	20	
13	0	0	0	0	522	519	3	0	40	20	
14	0	0	0	0	512	519	3	0	40	20	
15	0	0	0	0	513	515	3	496	40	20	
0	0	0	0	0	512	516	3	1017	40	20	
1	0	0	0	0	515	515	3	1018	40	20	
2	0	0	0	0	511	513	2	1018	40	20	
3	0	0	0	0	513	513	1	1018	40	20	
4	0	0	0	0	510	509	2	1019	40	20	
5	0	0	0	0	509	505	0	1019	40	20	
6	0	0	0	0	510	504	0	1018	40	20	
7	0	0	0	0	505	501	0	0	40	20	
8	0	0	0	0	508	502	1	0	40	20	
9	0	0	0	0	513	507	2	0	40	20	
10	0	0	0	0	513	509	2	0	40	20	
11	0	0	0	0	518	514	1	0	40	20	
12	0	0	0	0	519	515	1	0	40	20	
13	0	0	0	0	511	515	3	0	40	20	
14	0	0	0	0	516	514	3	0	40	20	
15	0	0	0	0	510	513	3	0	40	20	
0	0	0	0	0	516	513	3	633	40	20	
1	0	0	0	0	519	514	2	1018	40	20	
2	0	0	0	0	512	514	1	1018	40	20	
3	0	0	0	0	512	511	1	1018	40	20	
4	0	0	0	0	511	510	3	1019	40	20	
5	0	0	0	0	509	504	0	1018	40	20	
6	0	0	0	0	506	503	0	1018	40	20	
7	0	0	0	0	503	501	1	1018	40	20	
8	0	0	0	0	508	500	0	0	40	20	
9	0	0	0	0	511	503	1	0	40	20	
10	0	0	0	0	512	509	1	0	40	20	
11	0	0	0	0	515	513	2	0	40	20	
12	0	0	0	0	512	516	2	0	40	20	
13	0	0	0	0	514	515	2	0	40	20	
14	0	0	0	0	513	515	2	0	40	20	
15	0	0	0	0	516	515	1	0	40	20	
0	0	0	0	0	518	515	3	0	40	20	
1	0	0	0	0	515	513	1	0	40	20	
2	0	0	0	0	513	515	1	1018	40	20	
3	0	0	0	0	514	515	1	1018	40	20	
4	0	0	0	0	515	513	4	1019	40	20	
5	0	0	0	0	516	508	3	1018	40	20	
6	0	0	0	0	511	506	2	1018	40	20	
7	0	0	0	0	511	503	1	0	40	20	
8	0	0	0	0	506	503	2	0	40	20	
9	0	0	0	0	508	502	2	0	40	20	
10	0	0	0	0	513	506	1	0	40	20	
11	0	0	0	0	511	509	0	0	40	20	
12	0	0	0	0	516	513	1	0	40	20	
13	0	0	0	0	515	513	0	0	40	20	
14	0	0	0	0	516	515	0	0	40	20	
15	0	0	0	0	515	517	1	0	40	20	
0	0	0	0	0	515	515	2	0	40	20	
1	0	0	0	0	517	511	1	0	40	20	
2	0	0	0	0	515	513	1	1018	40	20	
3	0	0	0	0	514	514	1	1018	40	20	
4	0	0	0	0	512	511	3	1018	40	20	
5	0	0	0	0	513	510	0	1018	40	20	
6	0	0	0	0	512	507	1	1018	40	20	
7	0	0	0	0	505	506	0	1018	40	20	
8	0	0	0	0	504	505	2	1019	40	20	
9	0	0	0	0	503	502	0	0	40	20	
10	0	0	0	0	509	504	1	0	40	20	
11	0	0	0	0	511	508	1	0	40	20	
12	0	0	0	0	513	513	3	0	40	20	
13	0	0	0	0	518	515	1	0	40	20	
14	0	0	0	0	513	518	3	0	40	20	
15	0	0	0	0	513	518	3	0	40	20	
0	0	0	0	0	514	516	3	0	40	20	
1	0	0	0	0	520	515	3	1018	40	20	
2	0	0	0	0	516	513	3	1018	40	20	
3	0	0	0	0	517	514	3	1018	40	20	
4	0	0	0	0	516	513	4	1018	40	20	
5	0	0	0	0	511	510	3	1018	40	20	
6	0	0	0	0	504	506	3	1018	40	20	
7	0	0	0	0	508	505	2	1018	40	20	
8	0	0	0	0	509	502	3	1019	40	20	
9	0	0	0	0	509	500	1	1018	40	20	
10	0	0	0	0	507	502	1	1018	40	20	
11	0	0	0	0	508	505	1	1017	40	20	
12	0	0	0	0	514	510	0	0	40	20	
13	0	0	0	0	513	513	1	0	40	20	
14	0	0	0	0	507	516	1	0	40	20	
15	0	0	0	0	515	516	1	0	40	20	
0	0	0	0	0	515	516	3	0	40	20	
1	0	0	0	0	516	514	2	1018	40	20	
2	0	0	0	0	519	509	2	1018	40	20	
3	0	0	0	0	517	512	1	1018	40	20	
4	0	0	0	0	515	511	4	1019	40	20	
5	0	0	0	0	514	507	1	1018	40	20	
6	0	0	0	0	515	507	1	1018	40	20	
7	0	0	0	0	513	506	0	1018	40	20	
8	0	0	0	0	513	502	1	1018	40	20	
9	0	0	0	0	513	499	0	1018	40	20	
10	0	0	0	0	507	496	1	1018	40	20	
11	0	0	0	0	502	497	0	1018	40	20	
12	0	0	0	0	508	503	2	0	40	20	
13	0	0	0	0	512	507	1	0	40	20	
14	0	0	0	0	513	514	1	0	40	20	
15	0	0	0	0	510	515	2	0	40	20	
0	0	0	0	0	515	518	3	0	40	20	
1	0	0	0	0	515	516	3	0	40	20	
2	0	0	0	0	518	516	3	1018	40	20	
3	0	0	0	0	513	515	3	1018	40	20	
4	0	0	0	0	516	516	3	1017	40	20	
5	0	0	0	0	518	515	3	1018	40	20	
6	0	0	0	0	506	514	3	1018	40	20	
7	0	0	0	0	505	510	3	1018	40	20	
8	0	0	0	0	509	507	2	1019	40	20	
9	0	0	0	0	511	503	2	1018	40	20	
10	0	0	0	0	509	503	1	1018	40	20	
11	0	0	0	0	506	502	0	1018	40	20	
12	0	0	0	0	507	504	1	0	40	20	
13	0	0	0	0	509	510	1	0	40	20	
14	0	0	0	0	514	515	1	0	40	20	
15	0	0	0	0	516	519	2	0	40	20	
0	0	0	0	0	515	519	3	0	40	20	
1	0	0	0	0	515	518	4	0	40	20	
2	0	0	0	0	519	517	3	0	40	20	
3	0	0	0	0	519	516	3	1018	40	20	
4	0	0	0	0	517	514	3	1019	40	20	
5	0	0	0	0	519	512	2	1018	40	20	
6	0	0	0	0	516	513	1	1018	40	20	
7	0	0	0	0	512	510	1	1018	40	20	
8	0	0	0	0	511	508	3	1018	40	20	
9	0	0	0	0	509	504	3	1018	40	20	
10	0	0	0	0	508	501	2	1018	40	20	
11	0	0	0	0	504	498	1	1018	40	20	
12	0	0	0	0	506	496	1	1018	40	20	
13	0	0	0	0	509	500	1	0	40	20	
14	0	0	0	0	512	505	0	0	40	20	
15	0	0	0	0	515	509	0	0	40	20	
0	0	0	0	0	512	513	3	0	40	20	
1	0	0	0	0	514	515	1	0	40	20	
2	0	0	0	0	510	517	1	0	40	20	
3	0	0	0	0	513	516	2	0	40	20	
4	0	0	0	0	519	514	5	1018	40	20	
5	0	0	0	0	514	514	3	1018	40	20	
6	0	0	0	0	513	513	3	1018	40	20	
7	0	0	0	0	513	511	3	1018	40	20	
8	0	0	0	0	520	508	3	1019	40	20	
9	0	0	0	0	515	506	3	1018	40	20	
10	0	0	0	0	508	505	3	1018	40	20	
11	0	0	0	0	509	503	0	1018	40	20	
12	0	0	0	0	510	502	1	1019	40	20	
13	0	0	0	0	514	501	0	1018	40	20	
14	0	0	0	0	516	505	0	0	40	20	
15	0	0	0	0	516	510	0	0	40	20	
0	0	0	0	0	516	515	3	0	40	20	
1	0	0	0	0	514	517	1	0	40	20	
2	0	0	0	0	516	516	3	0	40	20	
3	0	0	0	0	519	518	3	0	40	20	
4	0	0	0	0	513	515	4	1019	40	20	
5	0	0	0	0	512	512	3	1018	40	20	
6	0	0	0	0	517	511	3	1018	40	20	
7	0	0	0	0	515	512	2	1018	40	20	
8	0	0	0	0	511	511	3	1018	40	20	
9	0	0	0	0	506	510	2	1018	40	20	
10	0	0	0	0	504	508	1	1018	40	20	
11	0	0	0	0	506	506	0	1018	40	20	
12	0	0	0	0	505	505	0	1018	40	20	
13	0	0	0	0	505	504	0	1018	40	20	
14	0	0	0	0	507	506	0	0	40	20	
15	0	0	0	0	511	512	1	0	40	20	
0	0	0	0	0	516	517	1	0	40	20	
1	0	0	0	0	515	518	1	0	40	20	
2	0	0	0	0	519	518	3	0	40	20	
3	0	0	0	0	517	518	3	0	40	20	
4	0	0	0	0	523	517	4	0	40	20	
5	0	0	0	0	517	513	3	0	40	20	
6	0	0	0	0	515	513	4	1018	40	20	
7	0	0	0	0	514	514	3	1018	40	20	
8	0	0	0	0	515	514	4	1018	40	20	
9	0	0	0	0	513	512	2	1018	40	20	
10	0	0	0	0	509	508	1	1018	40	20	
11	0	0	0	0	505	505	0	1018	40	20	
12	0	0	0	0	506	502	2	1019	40	20	
13	0	0	0	0	504	498	0	1018	40	20	
14	0	0	0	0	504	497	0	0	40	20	
15	0	0	0	0	512	502	1	0	40	20	
0	0	0	0	0	517	507	2	0	40	20	
1	0	0	0	0	520	508	1	0	40	20	
2	0	0	0	0	523	511	2	0	40	20	
3	0	0	0	0	527	514	2	0	40	20	
4	0	0	0	0	517	515	2	0	40	20	
5	0	0	0	0	519	514	4	0	40	20	
6	0	0	0	0	519	513	2	0	40	20	
7	0	0	0	0	511	513	2	1018	40	20	
8	0	0	0	0	518	511	4	1018	40	20	
9	0	0	0	0	513	511	1	1018	40	20	
10	0	0	0	0	508	509	1	1018	40	20	
11	0	0	0	0	510	507	1	1018	40	20	
12	0	0	0	0	504	504	3	1019	40	20	
13	0	0	0	0	501	500	1	1018	40	20	
14	0	0	0	0	499	500	1	1018	40	20	
15	0	0	0	0	504	502	0	0	40	20	
0	0	0	0	0	511	506	1	0	40	20	
1	0	0	0	0	512	508	1	0	40	20	
2	0	0	0	0	513	512	1	0	40	20	
3	0	0	0	0	515	514	1	0	40	20	
4	0	0	0	0	515	514	3	0	40	20	
5	0	0	0	0	515	513	2	0	40	20	
6	0	0	0	0	516	512	1	0	40	20	
7	0	0	0	0	515	512	1	1018	40	20	
8	0	0	0	0	516	512	4	1019	40	20	
9	0	0	0	0	515	512	2	1018	40	20	
10	0	0	0	0	517	510	3	1018	40	20	
11	0	0	0	0	507	508	3	1018	40	20	
12	0	0	0	0	512	505	3	1019	40	20	
13	0	0	0	0	508	501	2	1018	40	20	
14	0	0	0	0	508	499	1	1018	40	20	
15	0	0	0	0	508	499	1	1018	40	20	
0	0	0	0	0	510	503	1	1018	40	20	
1	0	0	0	0	511	506	1	0	40	20	
2	0	0	0	0	513	508	0	0	40	20	
3	0	0	0	0	513	515	0	0	40	20	
4	0	0	0	0	517	518	3	0	40	20	
5	0	0	0	0	517	515	1	0	40	20	
6	0	0	0	0	518	516	2	0	40	20	
7	0	0	0	0	514	512	3	1018	40	20	
8	0	0	0	0	517	512	3	1019	40	20	
9	0	0	0	0	512	512	3	1018	40	20	
10	0	0	0	0	518	514	3	1018	40	20	
11	0	0	0	0	515	514	3	1018	40	20	
12	0	0	0	0	512	511	3	1019	40	20	
13	0	0	0	0	508	507	1	1018	40	20	
14	0	0	0	0	510	504	1	1018	40	20	
15	0	0	0	0	511	502	1	397	40	20	
0	0	0	0	0	508	503	1	0	40	20	
1	0	0	0	0	508	506	1	0	40	20	
2	0	0	0	0	510	511	1	0	40	20	
3	0	0	0	0	516	513	1	0	40	20	
4	0	0	0	0	515	516	1	0	40	20	
5	0	0	0	0	509	516	3	0	40	20	
6	0	0	0	0	512	516	3	0	40	20	
7	0	0	0	0	512	515	2	0	40	20	
8	0	0	0	0	511	512	3	0	40	20	
9	0	0	0	0	513	510	2	938	40	20	
10	0	0	0	0	515	513	2	1018	40	20	
11	0	0	0	0	512	515	1	1018	40	20	
12	0	0	0	0	516	510	3	1019	40	20	
13	0	0	0	0	514	505	1	1018	40	20	
14	0	0	0	0	514	504	0	1018	40	20	
15	0	0	0	0	509	501	0	1018	40	20	
0	0	0	0	0	512	499	0	1019	40	20	
1	0	0	0	0	512	501	0	1018	40	20	
2	0	0	0	0	513	504	0	0	40	20	
3	0	0	0	0	514	510	0	0	40	20	
4	0	0	0	0	519	515	3	0	40	20	
5	0	0	0	0	518	516	0	0	40	20	
6	0	0	0	0	512	518	1	0	40	20	
7	0	0	0	0	514	519	2	1018	40	20	
8	0	0	0	0	512	518	6	1019	40	20	
9	0	0	0	0	511	515	1	1018	40	20	
10	0	0	0	0	513	515	2	1018	40	20	
11	0	0	0	0	515	515	1	1018	40	20	
12	0	0	0	0	513	512	3	1019	40	20	
13	0	0	0	0	507	511	3	1018	40	20	
14	0	0	0	0	507	508	3	1018	40	20	
15	0	0	0	0	508	504	2	1018	40	20	
0	0	0	0	0	508	500	2	1018	40	20	
1	0	0	0	0	505	499	1	1018	40	20	
2	0	0	0	0	504	502	1	1018	40	20	
3	0	0	0	0	508	507	0	0	40	20	
4	0	0	0	0	518	513	1	0	40	20	
5	0	0	0	0	516	517	1	0	40	20	
6	0	0	0	0	515	519	1	0	40	20	
7	0	0	0	0	519	520	1	0	40	20	
8	0	0	0	0	520	517	3	1019	40	20	
9	0	0	0	0	520	514	2	1018	40	20	
10	0	0	0	0	519	514	3	1018	40	20	
11	0	0	0	0	513	514	3	1018	40	20	
12	0	0	0	0	513	514	3	1018	40	20	
13	0	0	0	0	518	511	3	1018	40	20	
14	0	0	0	0	514	509	3	1018	40	20	
15	0	0	0	0	508	506	2	1018	40	20	
0	0	0	0	0	506	502	1	1018	40	20	
1	0	0	0	0	501	499	1	1018	40	20	
2	0	0	0	0	501	500	0	1018	40	20	
3	0	0	0	0	504	504	0	0	40	20	
4	0	0	0	0	504	508	1	0	40	20	
5	0	0	0	0	512	513	0	0	40	20	
6	0	0	0	0	514	518	0	0	40	20	
7	0	0	0	0	518	520	1	0	40	20	
8	0	0	0	0	521	519	4	0	40	20	
9	0	0	0	0	522	516	3	0	40	20	
10	0	0	0	0	518	514	3	0	40	20	
11	0	0	0	0	513	512	3	0	40	20	
12	0	0	0	0	517	512	3	1019	40	20	
13	0	0	0	0	516	511	3	1018	40	20	
14	0	0	0	0	513	509	2	1018	40	20	
15	0	0	0	0	511	508	1	1018	40	20	
0	0	0	0	0	509	507	3	1017	40	20	
1	0	0	0	0	504	504	0	0	40	20	
2	0	0	0	0	501	502	0	0	40	20	
3	0	0	0	0	506	503	0	0	40	20	
4	0	0	0	0	512	507	2	0	40	20	
5	0	0	0	0	515	510	1	0	40	20	
6	0	0	0	0	516	515	1	0	40	20	
7	0	0	0	0	516	519	2	0	40	20	
8	0	0	0	0	515	517	2	0	40	20	
9	0	0	0	0	519	515	4	0	40	20	
10	0	0	0	0	516	515	3	0	40	20	
11	0	0	0	0	513	513	2	0	40	20	
12	0	0	0	0	517	514	3	1019	40	20	
13	0	0	0	0	513	512	2	1018	40	20	
14	0	0	0	0	514	510	1	1018	40	20	
15	0	0	0	0	509	507	0	1018	40	20	
0	0	0	0	0	510	505	3	1019	40	20	
1	0	0	0	0	507	499	0	1018	40	20	
2	0	0	0	0	507	498	0	1018	40	20	
3	0	0	0	0	505	497	0	0	40	20	
4	0	0	0	0	508	502	2	0	40	20	
5	0	0	0	0	515	505	1	0	40	20	
6	0	0	0	0	512	510	1	0	40	20	
7	0	0	0	0	518	515	1	0	40	20	
8	0	0	0	0	515	516	3	0	40	20	
9	0	0	0	0	517	514	3	0	40	20	
10	0	0	0	0	516	514	3	0	40	20	
11	0	0	0	0	514	510	2	0	40	20	
12	0	0	0	0	512	510	3	0	40	20	
13	0	0	0	0	511	510	1	0	40	20	
14	0	0	0	0	509	513	1	1018	40	20	
15	0	0	0	0	509	511	1	1018	40	20	
0	0	0	0	0	508	508	3	1019	40	20	
1	0	0	0	0	506	504	0	1018	40	20	
2	0	0	0	0	507	504	2	1018	40	20	
3	0	0	0	0	503	501	0	0	40	20	
4	0	0	0	0	498	500	0	0	40	20	
5	0	0	0	0	500	503	1	0	40	20	
6	0	0	0	0	513	508	1	0	40	20	
7	0	0	0	0	512	511	0	0	40	20	
8	0	0	0	0	513	510	2	0	40	20	
9	0	0	0	0	514	513	1	0	40	20	
10	0	0	0	0	515	515	1	0	40	20	
11	0	0	0	0	514	515	1	0	40	20	
12	0	0	0	0	516	514	4	0	40	20	
13	0	0	0	0	516	512	1	907	40	20	
14	0	0	0	0	518	512	1	1018	40	20	
15	0	0	0	0	516	513	3	1018	40	20	
0	0	0	0	0	511	508	3	1018	40	20	
1	0	0	0	0	508	506	3	1018	40	20	
2	0	0	0	0	507	503	2	1018	40	20	
3	0	0	0	0	511	503	1	1018	40	20	
4	0	0	0	0	513	502	1	0	40	20	
5	0	0	0	0	515	501	0	0	40	20	
6	0	0	0	0	517	504	0	0	40	20	
7	0	0	0	0	525	509	0	0	40	20	
8	0	0	0	0	533	513	1	0	40	20	
9	0	0	0	0	538	516	0	0	40	20	
10	0	0	0	0	531	516	3	0	40	20	
11	0	0	0	0	534	516	3	0	40	20	
12	0	0	0	0	521	513	5	0	40	20	
13	0	0	0	0	521	510	4	1018	40	20	
14	0	0	0	0	522	510	4	1018	40	20	
15	0	0	0	0	517	513	3	1018	40	20	
0	0	0	0	0	517	510	3	1018	40	20	
1	0	0	0	0	511	509	2	1018	40	20	
2	0	0	0	0	509	509	1	1018	40	20	
3	0	0	0	0	505	504	0	1018	40	20	
4	0	0	0	0	502	502	0	1018	40	20	
5	0	0	0	0	501	502	0	1018	40	20	
6	0	0	0	0	508	505	1	1018	40	20	
7	0	0	0	0	515	509	1	0	40	20	
8	0	0	0	0	514	513	1	0	40	20	
9	0	0	0	0	514	515	2	0	40	20	
10	0	0	0	0	515	518	3	0	40	20	
11	0	0	0	0	515	518	2	0	40	20	
12	0	0	0	0	514	517	4	1018	40	20	
13	0	0	0	0	511	516	2	1018	40	20	
14	0	0	0	0	508	515	1	1018	40	20	
15	0	0	0	0	508	516	1	1018	40	20	
0	0	0	0	0	504	513	4	1018	40	20	
1	0	0	0	0	507	510	1	1018	40	20	
2	0	0	0	0	505	509	3	1018	40	20	
3	0	0	0	0	504	507	3	1018	40	20	
4	0	0	0	0	503	502	3	1019	40	20	
5	0	0	0	0	498	499	2	1018	40	20	
6	0	0	0	0	500	499	1	1018	40	20	
7	0	0	0	0	506	502	1	1018	40	20	
8	0	0	0	0	511	505	1	0	40	20	
9	0	0	0	0	511	511	2	0	40	20	
10	0	0	0	0	508	515	1	0	40	20	
11	0	0	0	0	509	518	2	0	40	20	
12	0	0	0	0	512	518	4	1017	40	20	
13	0	0	0	0	513	516	1	1018	40	20	
14	0	0	0	0	512	513	1	1018	40	20	
15	0	0	0	0	515	515	1	1018	40	20	
0	0	0	0	0	515	516	4	1019	40	20	
1	0	0	0	0	512	513	2	1018	40	20	
2	0	0	0	0	515	512	3	1018	40	20	
3	0	0	0	0	516	508	3	1018	40	20	
4	0	0	0	0	515	508	4	1019	40	20	
5	0	0	0	0	511	505	3	1018	40	20	
6	0	0	0	0	506	502	2	1018	40	20	
7	0	0	0	0	509	504	0	1018	40	20	
8	0	0	0	0	512	505	1	1019	40	20	
9	0	0	0	0	513	510	1	0	40	20	
10	0	0	0	0	519	516	1	0	40	20	
11	0	0	0	0	517	515	1	531	40	20	
12	0	0	0	0	521	515	3	1018	40	20	
13	0	0	0	0	522	515	2	1018	40	20	
14	0	0	0	0	516	514	3	1018	40	20	
15	0	0	0	0	513	513	3	1018	40	20	
0	0	0	0	0	511	513	3	1019	40	20	
1	0	0	0	0	511	512	2	1018	40	20	
2	0	0	0	0	515	511	3	1018	40	20	
3	0	0	0	0	511	511	3	1018	40	20	
4	0	0	0	0	509	505	3	1018	40	20	
5	0	0	0	0	505	500	2	1018	40	20	
6	0	0	0	0	507	501	1	1018	40	20	
7	0	0	0	0	509	500	0	1018	40	20	
8	0	0	0	0	516	504	2	1019	40	20	
9	0	0	0	0	514	508	0	1018	40	20	
10	0	0	0	0	515	513	1	1018	40	20	
11	0	0	0	0	519	516	1	1018	40	20	
12	0	0	0	0	522	517	2	1019	40	20	
13	0	0	0	0	517	517	2	1018	40	20	
14	0	0	0	0	515	518	3	1018	40	20	
15	0	0	0	0	511	516	3	1018	40	20	
0	0	0	0	0	513	517	3	1019	40	20	
1	0	0	0	0	510	516	3	1018	40	20	
2	0	0	0	0	514	515	3	1018	40	20	
3	0	0	0	0	512	513	3	1018	40	20	
4	0	0	0	0	511	510	4	1019	40	20	
5	0	0	0	0	508	504	2	1018	40	20	
6	0	0	0	0	510	500	3	1018	40	20	
7	0	0	0	0	505	499	3	1018	40	20	
8	0	0	0	0	511	496	1	1018	40	20	
9	0	0	0	0	514	500	2	1018	40	20	
10	0	0	0	0	512	503	2	1018	40	20	
11	0	0	0	0	517	510	2	1018	40	20	
12	0	0	0	0	518	513	4	1019	40	20	
13	0	0	0	0	517	514	2	1018	40	20	
14	0	0	0	0	516	515	1	1018	40	20	
15	0	0	0	0	519	515	1	1018	40	20	
0	0	0	0	0	514	513	4	1019	40	20	
1	0	0	0	0	505	511	3	1018	40	20	
2	0	0	0	0	509	513	3	1018	40	20	
3	0	0	0	0	511	512	2	1018	40	20	
4	0	0	0	0	511	511	4	1019	40	20	
5	0	0	0	0	516	508	3	1018	40	20	
6	0	0	0	0	512	506	3	1018	40	20	
7	0	0	0	0	511	505	2	1018	40	20	
8	0	0	0	0	514	504	3	1018	40	20	
9	0	0	0	0	516	502	0	1018	40	20	
10	0	0	0	0	515	506	0	1018	40	20	
11	0	0	0	0	516	510	0	1018	40	20	
12	0	0	0	0	520	515	4	1019	40	20	
13	0	0	0	0	522	516	1	1018	40	20	
14	0	0	0	0	518	516	2	1018	40	20	
15	0	0	0	0	519	518	3	1018	40	20	
0	0	0	0	0	514	516	4	1019	40	20	
1	0	0	0	0	507	511	3	1018	40	20	
2	0	0	0	0	508	512	3	1018	40	20	
3	0	0	0	0	508	511	2	1018	40	20	
4	0	0	0	0	510	509	3	1018	40	20	
5	0	0	0	0	510	509	3	1018	40	20	
6	0	0	0	0	511	506	2	1018	40	20	
7	0	0	0	0	502	503	1	1018	40	20	
8	0	0	0	0	508	501	3	1018	40	20	
9	0	0	0	0	508	502	1	1018	40	20	
10	0	0	0	0	508	506	1	1018	40	20	
11	0	0	0	0	514	508	1	1018	40	20	
12	0	0	0	0	515	512	3	1019	40	20	
13	0	0	0	0	518	515	3	1018	40	20	
14	0	0	0	0	519	518	3	1018	40	20	
15	0	0	0	0	520	516	3	1018	40	20	
0	0	0	0	0	515	515	2	1019	40	20	
1	0	0	0	0	514	512	3	1018	40	20	
2	0	0	0	0	513	510	2	1018	40	20	
3	0	0	0	0	515	511	2	1018	40	20	
4	0	0	0	0	511	510	2	1018	40	20	
5	0	0	0	0	508	509	3	1018	40	20	
6	0	0	0	0	509	507	1	1018	40	20	
7	0	0	0	0	511	506	0	1018	40	20	
8	0	0	0	0	506	504	3	1019	40	20	
9	0	0	0	0	503	501	1	1018	40	20	
10	0	0	0	0	507	502	1	1018	40	20	
11	0	0	0	0	514	506	2	1018	40	20	
12	0	0	0	0	516	510	3	1018	40	20	
13	0	0	0	0	518	512	3	1018	40	20	
14	0	0	0	0	517	516	3	1018	40	20	
15	0	0	0	0	517	518	3	1018	40	20	
0	0	0	0	0	516	517	4	1019	40	20	
1	0	0	0	0	516	515	3	1018	40	20	
2	0	0	0	0	514	512	3	1018	40	20	
3	0	0	0	0	510	512	2	1018	40	20	
4	0	0	0	0	510	511	3	1018	40	20	
5	0	0	0	0	509	509	1	1018	40	20	
6	0	0	0	0	508	508	1	1018	40	20	
7	0	0	0	0	508	507	1	1018	40	20	
8	0	0	0	0	507	505	2	1019	40	20	
9	0	0	0	0	510	504	0	1018	40	20	
10	0	0	0	0	509	503	1	1018	40	20	
11	0	0	0	0	511	503	1	1018	40	20	
12	0	0	0	0	512	506	1	1018	40	20	
13	0	0	0	0	515	511	2	673	40	20	
14	0	0	0	0	519	518	3	332	40	20	
15	0	0	0	0	524	521	3	1018	40	20	
0	0	0	0	0	521	523	3	1019	40	20	
1	0	0	0	0	516	520	2	1018	40	20	
2	0	0	0	0	513	518	1	1018	40	20	
3	0	0	0	0	514	513	1	1018	40	20	
4	0	0	0	0	511	512	3	1018	40	20	
5	0	0	0	0	511	513	0	1018	40	20	
6	0	0	0	0	511	512	1	1018	40	20	
7	0	0	0	0	513	511	3	1018	40	20	
8	0	0	0	0	511	509	3	1019	40	20	
9	0	0	0	0	506	507	3	1018	40	20	
10	0	0	0	0	508	507	2	1018	40	20	
11	0	0	0	0	508	507	2	1018	40	20	
12	0	0	0	0	509	508	3	1019	40	20	
13	0	0	0	0	510	510	2	1018	40	20	
14	0	0	0	0	511	513	2	0	40	20	
15	0	0	0	0	516	518	2	0	40	20	
0	0	0	0	0	511	518	4	1019	40	20	
1	0	0	0	0	517	516	3	1018	40	20	
2	0	0	0	0	515	515	3	1018	40	20	
3	0	0	0	0	514	512	3	1018	40	20	
4	0	0	0	0	514	510	3	1018	40	20	
5	0	0	0	0	513	511	3	1018	40	20	
6	0	0	0	0	519	513	2	1018	40	20	
7	0	0	0	0	516	512	2	1018	40	20	
8	0	0	0	0	512	511	3	1019	40	20	
9	0	0	0	0	513	507	1	1018	40	20	
10	0	0	0	0	511	504	2	1018	40	20	
11	0	0	0	0	508	502	1	1018	40	20	
12	0	0	0	0	507	501	1	1019	40	20	
13	0	0	0	0	510	504	0	1018	40	20	
14	0	0	0	0	511	509	0	0	40	20	
15	0	0	0	0	514	512	0	0	40	20	
0	0	0	0	0	512	514	2	0	40	20	
1	0	0	0	0	515	517	1	0	40	20	
2	0	0	0	0	518	516	1	998	40	20	
3	0	0	0	0	516	515	0	1018	40	20	
4	0	0	0	0	513	514	4	1019	40	20	
5	0	0	0	0	512	513	1	1018	40	20	
6	0	0	0	0	515	514	1	1018	40	20	
7	0	0	0	0	517	511	1	1018	40	20	
8	0	0	0	0	512	511	1	1018	40	20	
9	0	0	0	0	509	508	1	1018	40	20	
10	0	0	0	0	508	506	3	1018	40	20	
11	0	0	0	0	508	505	3	1018	40	20	
12	0	0	0	0	511	501	3	1019	40	20	
13	0	0	0	0	507	501	1	1018	40	20	
14	0	0	0	0	512	506	1	0	40	20	
15	0	0	0	0	515	512	1	0	40	20	
0	0	0	0	0	517	517	3	0	40	20	
1	0	0	0	0	517	519	3	0	40	20	
2	0	0	0	0	520	522	3	0	40	20	
3	0	0	0	0	519	522	2	0	40	20	
4	0	0	0	0	511	518	4	1018	40	20	
5	0	0	0	0	508	515	1	1018	40	20	
6	0	0	0	0	511	516	1	1018	40	20	
7	0	0	0	0	508	516	1	1018	40	20	
8	0	0	0	0	513	513	3	1019	40	20	
9	0	0	0	0	514	511	2	1018	40	20	
10	0	0	0	0	509	508	3	1018	40	20	
11	0	0	0	0	508	505	3	1018	40	20	
12	0	0	0	0	503	504	3	1019	40	20	
13	0	0	0	0	501	500	1	1017	40	20	
14	0	0	0	0	506	503	0	0	40	20	
15	0	0	0	0	510	508	0	0	40	20	
0	0	0	0	0	516	513	2	0	40	20	
1	0	0	0	0	519	518	0	0	40	20	
2	0	0	0	0	519	518	1	0	40	20	
3	0	0	0	0	522	519	2	0	40	20	
4	0	0	0	0	519	520	4	0	40	20	
5	0	0	0	0	515	516	3	0	40	20	
6	0	0	0	0	518	515	3	1018	40	20	
7	0	0	0	0	521	517	4	1018	40	20	
8	0	0	0	0	516	516	3	1019	40	20	
9	0	0	0	0	514	510	2	1018	40	20	
10	0	0	0	0	511	508	1	1018	40	20	
11	0	0	0	0	507	505	0	1018	40	20	
12	0	0	0	0	501	503	2	1019	40	20	
13	0	0	0	0	499	499	0	0	40	20	
14	0	0	0	0	504	499	0	0	40	20	
15	0	0	0	0	508	502	0	0	40	20	
0	0	0	0	0	514	507	1	0	40	20	
1	0	0	0	0	512	512	2	0	40	20	
2	0	0	0	0	516	515	3	0	40	20	
3	0	0	0	0	521	516	3	0	40	20	
4	0	0	0	0	514	515	3	0	40	20	
5	0	0	0	0	519	512	3	0	40	20	
6	0	0	0	0	519	511	2	0	40	20	
7	0	0	0	0	516	510	1	0	40	20	
8	0	0	0	0	518	510	4	674	40	20	
9	0	0	0	0	515	511	1	1018	40	20	
10	0	0	0	0	510	508	1	1018	40	20	
11	0	0	0	0	511	507	3	1018	40	20	
12	0	0	0	0	508	502	1	1018	40	20	
13	0	0	0	0	505	500	1	1018	40	20	
14	0	0	0	0	506	498	0	0	40	20	
15	0	0	0	0	509	499	0	0	40	20	
0	0	0	0	0	510	503	1	0	40	20	
1	0	0	0	0	510	506	1	0	40	20	
2	0	0	0	0	513	512	1	0	40	20	
3	0	0	0	0	507	513	1	0	40	20	
4	0	0	0	0	516	516	2	0	40	20	
5	0	0	0	0	519	515	1	0	40	20	
6	0	0	0	0	517	516	2	0	40	20	
7	0	0	0	0	516	514	3	0	40	20	
8	0	0	0	0	519	514	2	0	40	20	
9	0	0	0	0	518	513	2	0	40	20	
10	0	0	0	0	512	511	3	0	40	20	
11	0	0	0	0	509	509	2	839	40	20	
12	0	0	0	0	507	506	2	1019	40	20	
13	0	0	0	0	504	502	0	0	40	20	
14	0	0	0	0	509	501	0	0	40	20	
15	0	0	0	0	511	500	0	0	40	20	
0	0	0	0	0	507	503	0	0	40	20	
1	0	0	0	0	512	505	1	0	40	20	
2	0	0	0	0	513	509	1	0	40	20	
3	0	0	0	0	515	511	0	0	40	20	
4	0	0	0	0	519	514	2	0	40	20	
5	0	0	0	0	518	513	1	0	40	20	
6	0	0	0	0	522	513	2	0	40	20	
7	0	0	0	0	522	512	3	0	40	20	
8	0	0	0	0	516	510	3	0	40	20	
9	0	0	0	0	512	512	3	0	40	20	
10	0	0	0	0	509	513	3	0	40	20	
11	0	0	0	0	512	512	2	0	40	20	
12	0	0	0	0	511	507	2	0	40	20	
13	0	0	0	0	509	503	0	0	40	20	
14	0	0	0	0	505	502	0	0	40	20	
15	0	0	0	0	502	501	0	0	40	20	
0	0	0	0	0	503	500	1	0	40	20	
1	0	0	0	0	509	503	0	0	40	20	
2	0	0	0	0	513	508	0	0	40	20	
3	0	0	0	0	514	512	0	0	40	20	
4	0	0	0	0	517	515	2	0	40	20	
5	0	0	0	0	518	517	2	0	40	20	
6	0	0	0	0	520	516	3	0	40	20	
7	0	0	0	0	515	515	2	0	40	20	
8	0	0	0	0	520	512	3	0	40	20	
9	0	0	0	0	521	513	3	0	40	20	
10	0	0	0	0	519	513	2	0	40	20	
11	0	0	0	0	515	510	1	0	40	20	
12	0	0	0	0	513	510	1	0	40	20	
13	0	0	0	0	510	505	0	0	40	20	
14	0	0	0	0	506	504	0	0	40	20	
15	0	0	0	0	504	501	0	0	40	20	
0	0	0	0	0	505	499	0	0	40	20	
1	0	0	0	0	507	502	0	0	40	20	
2	0	0	0	0	508	505	1	0	40	20	
3	0	0	0	0	512	509	1	0	40	20	
4	0	0	0	0	516	512	2	0	40	20	
5	0	0	0	0	514	513	1	0	40	20	
6	0	0	0	0	512	516	3	0	40	20	
7	0	0	0	0	517	517	2	0	40	20	
8	0	0	0	0	518	515	3	0	40	20	
9	0	0	0	0	515	512	1	0	40	20	
10	0	0	0	0	516	513	1	0	40	20	
11	0	0	0	0	511	513	3	520	40	20	
12	0	0	0	0	515	511	3	1018	40	20	
13	0	0	0	0	515	508	3	1018	40	20	
14	0	0	0	0	509	504	2	1018	40	20	
15	0	0	0	0	503	502	2	1018	40	20	
0	0	0	0	0	503	498	1	0	40	20	
1	0	0	0	0	508	496	0	0	40	20	
2	0	0	0	0	507	499	0	0	40	20	
3	0	0	0	0	510	503	0	0	40	20	
4	0	0	0	0	512	508	1	0	40	20	
5	0	0	0	0	514	512	0	0	40	20	
6	0	0	0	0	515	515	0	0	40	20	
7	0	0	0	0	512	517	0	0	40	20	
8	0	0	0	0	512	515	2	0	40	20	
9	0	0	0	0	515	512	1	0	40	20	
10	0	0	0	0	519	510	2	0	40	20	
11	0	0	0	0	519	513	3	0	40	20	
12	0	0	0	0	518	511	1	0	40	20	
13	0	0	0	0	513	511	2	0	40	20	
14	0	0	0	0	511	509	3	0	40	20	
15	0	0	0	0	513	508	1	0	40	20	
0	0	0	0	0	511	506	1	0	40	20	
1	0	0	0	0	505	503	1	0	40	20	
2	0	0	0	0	505	500	0	0	40	20	
3	0	0	0	0	507	505	0	0	40	20	
4	0	0	0	0	513	509	1	0	40	20	
5	0	0	0	0	516	511	0	0	40	20	
6	0	0	0	0	519	512	0	0	40	20	
7	0	0	0	0	519	513	0	0	40	20	
8	0	0	0	0	520	512	0	0	40	20	
9	0	0	0	0	517	512	0	0	40	20	
10	0	0	0	0	511	511	1	0	40	20	
11	0	0	0	0	512	511	0	0	40	20	
12	0	0	0	0	512	512	1	0	40	20	
13	0	0	0	0	508	511	2	0	40	20	
14	0	0	0	0	512	509	2	0	40	20	
15	0	0	0	0	504	507	1	0	40	20	
0	0	0	0	0	505	504	3	0	40	20	
1	0	0	0	0	507	502	1	0	40	20	
2	0	0	0	0	503	502	1	0	40	20	
3	0	0	0	0	505	504	0	0	40	20	
4	0	0	0	0	512	507	1	0	40	20	
5	0	0	0	0	518	512	0	0	40	20	
6	0	0	0	0	516	515	0	0	40	20	
7	0	0	0	0	512	518	0	0	40	20	
8	0	0	0	0	515	518	0	0	40	20	
9	0	0	0	0	513	516	1	0	40	20	
10	0	0	0	0	515	513	3	0	40	20	
11	0	0	0	0	512	512	2	0	40	20	
12	0	0	0	0	511	511	1	0	40	20	
13	0	0	0	0	515	511	2	0	40	20	
14	0	0	0	0	515	510	3	0	40	20	
15	0	0	0	0	513	509	2	0	40	20	
0	0	0	0	0	509	505	2	0	40	20	
1	0	0	0	0	505	503	1	0	40	20	
2	0	0	0	0	508	502	0	0	40	20	
3	0	0	0	0	508	502	0	0	40	20	
4	0	0	0	0	513	506	1	0	40	20	
5	0	0	0	0	518	510	0	0	40	20	
6	0	0	0	0	516	512	0	0	40	20	
7	0	0	0	0	517	515	0	0	40	20	
8	0	0	0	0	520	517	3	0	40	20	
9	0	0	0	0	515	516	0	0	40	20	
10	0	0	0	0	513	516	3	0	40	20	
11	0	0	0	0	510	513	2	0	40	20	
12	0	0	0	0	509	512	2	0	40	20	
13	0	0	0	0	512	513	3	0	40	20	
14	0	0	0	0	513	512	3	0	40	20	
15	0	0	0	0	512	510	2	849	40	20	
0	0	0	0	0	507	508	2	1019	40	20	
1	0	0	0	0	506	506	1	1018	40	20	
2	0	0	0	0	504	502	0	1018	40	20	
3	0	0	0	0	508	500	0	0	40	20	
4	0	0	0	0	508	499	0	0	40	20	
5	0	0	0	0	512	503	0	0	40	20	
6	0	0	0	0	513	508	1	0	40	20	
7	0	0	0	0	520	513	1	0	40	20	
8	0	0	0	0	521	516	3	0	40	20	
9	0	0	0	0	520	518	3	0	40	20	
10	0	0	0	0	518	517	3	0	40	20	
11	0	0	0	0	516	516	2	0	40	20	
12	0	0	0	0	513	514	3	0	40	20	
13	0	0	0	0	513	512	3	1018	40	20	
14	0	0	0	0	512	514	3	1018	40	20	
15	0	0	0	0	511	511	3	1018	40	20	
0	0	0	0	0	511	510	3	1018	40	20	
1	0	0	0	0	509	507	1	1018	40	20	
2	0	0	0	0	506	504	0	1018	40	20	
3	0	0	0	0	511	500	0	1018	40	20	
4	0	0	0	0	508	498	1	68	40	20	
5	0	0	0	0	508	499	0	0	40	20	
6	0	0	0	0	512	505	1	0	40	20	
7	0	0	0	0	511	511	1	0	40	20	
8	0	0	0	0	516	514	1	0	40	20	
9	0	0	0	0	516	516	1	0	40	20	
10	0	0	0	0	517	516	3	0	40	20	
11	0	0	0	0	520	518	3	0	40	20	
12	0	0	0	0	513	515	3	0	40	20	
13	0	0	0	0	507	511	2	0	40	20	
14	0	0	0	0	510	514	1	835	40	20	
15	0	0	0	0	509	514	1	1018	40	20	
0	0	0	0	0	513	510	3	1018	40	20	
1	0	0	0	0	517	510	1	1018	40	20	
2	0	0	0	0	514	507	2	1018	40	20	
3	0	0	0	0	510	504	1	1018	40	20	
4	0	0	0	0	511	501	1	1017	40	20	
5	0	0	0	0	512	500	1	0	40	20	
6	0	0	0	0	511	504	1	0	40	20	
7	0	0	0	0	512	508	1	0	40	20	
8	0	0	0	0	519	511	1	0	40	20	
9	0	0	0	0	517	515	0	0	40	20	
10	0	0	0	0	521	516	0	0	40	20	
11	0	0	0	0	517	517	0	0	40	20	
12	0	0	0	0	515	516	4	0	40	20	
13	0	0	0	0	511	513	1	0	40	20	
14	0	0	0	0	508	511	3	0	40	20	
15	0	0	0	0	513	512	3	0	40	20	
0	0	0	0	0	511	511	2	1019	40	20	
1	0	0	0	0	509	508	3	1018	40	20	
2	0	0	0	0	514	507	1	1018	40	20	
3	0	0	0	0	509	505	0	1018	40	20	
4	0	0	0	0	505	503	3	1019	40	20	
5	0	0	0	0	502	501	0	0	40	20	
6	0	0	0	0	503	500	1	0	40	20	
7	0	0	0	0	515	506	1	0	40	20	
8	0	0	0	0	517	509	1	0	40	20	
9	0	0	0	0	518	513	1	0	40	20	
10	0	0	0	0	522	515	2	0	40	20	
11	0	0	0	0	522	517	1	0	40	20	
12	0	0	0	0	520	515	3	0	40	20	
13	0	0	0	0	521	514	2	0	40	20	
14	0	0	0	0	518	511	1	0	40	20	
15	0	0	0	0	514	511	1	904	40	20	
0	0	0	0	0	513	513	3	1019	40	20	
1	0	0	0	0	507	515	1	1018	40	20	
2	0	0	0	0	504	513	1	1018	40	20	
3	0	0	0	0	511	512	3	1018	40	20	
4	0	0	0	0	508	506	1	1019	40	20	
5	0	0	0	0	502	503	1	1018	40	20	
6	0	0	0	0	501	500	1	1018	40	20	
7	0	0	0	0	512	499	0	0	40	20	
8	0	0	0	0	513	503	2	0	40	20	
9	0	0	0	0	513	507	0	0	40	20	
10	0	0	0	0	515	511	0	0	40	20	
11	0	0	0	0	517	514	0	0	40	20	
12	0	0	0	0	519	518	3	0	40	20	
13	0	0	0	0	516	516	1	0	40	20	
14	0	0	0	0	516	514	2	0	40	20	
15	0	0	0	0	514	511	3	1018	40	20	
0	0	0	0	0	515	512	4	1019	40	20	
1	0	0	0	0	516	511	3	1018	40	20	
2	0	0	0	0	512	509	3	1018	40	20	
3	0	0	0	0	508	506	3	1018	40	20	
4	0	0	0	0	509	505	2	1019	40	20	
5	0	0	0	0	504	503	2	1018	40	20	
6	0	0	0	0	507	502	0	1018	40	20	
7	0	0	0	0	501	501	0	0	40	20	
8	0	0	0	0	508	503	1	0	40	20	
9	0	0	0	0	509	505	0	0	40	20	
10	0	0	0	0	509	510	0	0	40	20	
11	0	0	0	0	515	514	0	0	40	20	
12	0	0	0	0	515	516	1	0	40	20	
13	0	0	0	0	516	516	3	0	40	20	
14	0	0	0	0	518	517	3	0	40	20	
15	0	0	0	0	518	514	3	0	40	20	
0	0	0	0	0	519	512	3	1018	40	20	
1	0	0	0	0	520	512	4	1018	40	20	
2	0	0	0	0	520	513	2	1018	40	20	
3	0	0	0	0	522	511	2	1018	40	20	
4	0	0	0	0	520	507	3	1019	40	20	
5	0	0	0	0	513	501	0	1018	40	20	
6	0	0	0	0	502	499	0	1018	40	20	
7	0	0	0	0	486	497	0	1018	40	20	
8	0	0	0	0	484	497	1	1018	40	20	
9	0	0	0	0	491	502	1	0	40	20	
10	0	0	0	0	503	508	0	0	40	20	
11	0	0	0	0	508	512	1	0	40	20	
12	0	0	0	0	512	514	3	0	40	20	
13	0	0	0	0	520	515	2	0	40	20	
14	0	0	0	0	523	517	2	0	40	20	
15	0	0	0	0	526	516	1	1018	40	20	
0	0	0	0	0	527	514	5	1019	40	20	
1	0	0	0	0	519	513	2	1018	40	20	
2	0	0	0	0	520	514	3	1018	40	20	
3	0	0	0	0	524	513	3	1018	40	20	
4	0	0	0	0	526	512	3	1019	40	20	
5	0	0	0	0	523	508	3	1018	40	20	
6	0	0	0	0	508	507	3	1018	40	20	
7	0	0	0	0	509	506	0	1018	40	20	
8	0	0	0	0	503	504	1	1019	40	20	
9	0	0	0	0	504	504	0	1018	40	20	
10	0	0	0	0	505	508	0	0	40	20	
11	0	0	0	0	513	513	1	0	40	20	
12	0	0	0	0	516	514	0	0	40	20	
13	0	0	0	0	526	514	2	0	40	20	
14	0	0	0	0	536	513	3	0	40	20	
15	0	0	0	0	518	515	2	0	40	20	
0	0	0	0	0	511	515	4	1019	40	20	
1	0	0	0	0	511	510	2	1018	40	20	
2	0	0	0	0	512	512	2	1018	40	20	
3	0	0	0	0	517	513	3	1018	40	20	
4	0	0	0	0	522	514	4	1019	40	20	
5	0	0	0	0	522	512	2	1018	40	20	
6	0	0	0	0	520	511	3	1018	40	20	
7	0	0	0	0	516	508	2	1018	40	20	
8	0	0	0	0	508	505	2	1019	40	20	
9	0	0	0	0	505	501	1	1018	40	20	
10	0	0	0	0	511	505	1	1018	40	20	
11	0	0	0	0	527	510	1	0	40	20	
12	0	0	0	0	519	515	3	0	40	20	
13	0	0	0	0	512	518	3	0	40	20	
14	0	0	0	0	506	521	3	0	40	20	
15	0	0	0	0	506	520	3	0	40	20	
0	0	0	0	0	508	517	4	1018	40	20	
1	0	0	0	0	506	515	4	1018	40	20	
2	0	0	0	0	507	514	2	1018	40	20	
3	0	0	0	0	507	512	1	1018	40	20	
4	0	0	0	0	507	511	4	1018	40	20	
5	0	0	0	0	508	510	2	1018	40	20	
6	0	0	0	0	505	508	1	1018	40	20	
7	0	0	0	0	506	506	0	1018	40	20	
8	0	0	0	0	502	502	1	1019	40	20	
9	0	0	0	0	500	502	0	1018	40	20	
10	0	0	0	0	505	503	1	1018	40	20	
11	0	0	0	0	508	505	1	1018	40	20	
12	0	0	0	0	512	510	0	0	40	20	
13	0	0	0	0	512	514	2	0	40	20	
14	0	0	0	0	511	516	3	0	40	20	
15	0	0	0	0	514	518	2	0	40	20	
0	0	0	0	0	513	517	4	1017	40	20	
1	0	0	0	0	518	518	1	1018	40	20	
2	0	0	0	0	514	516	3	1018	40	20	
3	0	0	0	0	514	516	3	1018	40	20	
4	0	0	0	0	518	514	3	1019	40	20	
5	0	0	0	0	513	511	3	1019	40	20	
6	0	0	0	0	513	509	3	1018	40	20	
7	0	0	0	0	508	508	3	1018	40	20	
8	0	0	0	0	508	503	3	1018	40	20	
9	0	0	0	0	508	499	0	1018	40	20	
10	0	0	0	0	507	498	0	1018	40	20	
11	0	0	0	0	511	500	0	1018	40	20	
12	0	0	0	0	515	505	2	145	40	20	
13	0	0	0	0	518	507	0	0	40	20	
14	0	0	0	0	521	513	2	0	40	20	
15	0	0	0	0	519	515	2	0	40	20	
0	0	0	0	0	521	517	5	0	40	20	
1	0	0	0	0	520	516	4	1018	40	20	
2	0	0	0	0	516	515	3	1018	40	20	
3	0	0	0	0	515	512	2	1018	40	20	
4	0	0	0	0	515	512	4	1018	40	20	
5	0	0	0	0	511	511	1	1018	40	20	
6	0	0	0	0	508	510	2	1018	40	20	
7	0	0	0	0	507	510	3	1018	40	20	
8	0	0	0	0	513	506	3	1018	40	20	
9	0	0	0	0	505	502	3	1018	40	20	
10	0	0	0	0	505	501	2	1018	40	20	
11	0	0	0	0	505	498	1	1018	40	20	
12	0	0	0	0	515	502	2	1019	40	20	
13	0	0	0	0	513	506	2	1018	40	20	
14	0	0	0	0	518	512	2	0	40	20	
15	0	0	0	0	523	516	3	0	40	20	
0	0	0	0	0	525	516	3	1018	40	20	
1	0	0	0	0	520	516	4	1018	40	20	
2	0	0	0	0	521	514	3	1018	40	20	
3	0	0	0	0	515	512	2	1018	40	20	
4	0	0	0	0	515	510	3	1018	40	20	
5	0	0	0	0	507	510	2	1018	40	20	
6	0	0	0	0	510	509	1	1018	40	20	
7	0	0	0	0	510	508	1	1018	40	20	
8	0	0	0	0	513	504	3	1018	40	20	
9	0	0	0	0	505	502	1	1018	40	20	
10	0	0	0	0	500	499	1	1018	40	20	
11	0	0	0	0	508	500	0	1018	40	20	
12	0	0	0	0	509	498	2	1019	40	20	
13	0	0	0	0	504	500	0	1018	40	20	
14	0	0	0	0	506	506	2	1018	40	20	
15	0	0	0	0	515	511	2	1018	40	20	
0	0	0	0	0	516	513	4	1019	40	20	
1	0	0	0	0	512	515	3	1018	40	20	
2	0	0	0	0	508	516	3	1018	40	20	
3	0	0	0	0	512	514	3	1018	40	20	
4	0	0	0	0	500	511	4	1019	40	20	
5	0	0	0	0	499	508	3	1018	40	20	
6	0	0	0	0	504	510	3	1018	40	20	
7	0	0	0	0	515	510	3	1018	40	20	
8	0	0	0	0	516	508	1	1019	40	20	
9	0	0	0	0	518	508	3	1018	40	20	
10	0	0	0	0	512	505	3	1018	40	20	
11	0	0	0	0	534	504	3	1018	40	20	
12	0	0	0	0	537	503	4	1019	40	20	
13	0	0	0	0	541	504	1	1018	40	20	
14	0	0	0	0	536	509	1	1018	40	20	
15	0	0	0	0	532	514	0	1018	40	20	
0	0	0	0	0	530	516	3	1018	40	20	
1	0	0	0	0	521	518	2	1018	40	20	
2	0	0	0	0	515	519	1	1018	40	20	
3	0	0	0	0	517	517	1	1018	40	20	
4	0	0	0	0	512	513	3	1018	40	20	
5	0	0	0	0	512	510	2	1018	40	20	
6	0	0	0	0	511	510	3	1018	40	20	
7	0	0	0	0	507	511	2	1018	40	20	
8	0	0	0	0	500	510	4	1019	40	20	
9	0	0	0	0	500	510	3	1018	40	20	
10	0	0	0	0	500	510	3	1018	40	20	
11	0	0	0	0	494	508	3	1018	40	20	
12	0	0	0	0	496	506	2	1018	40	20	
13	0	0	0	0	500	504	2	1018	40	20	
14	0	0	0	0	502	507	1	1018	40	20	
15	0	0	0	0	507	511	2	1018	40	20	
0	0	0	0	0	510	515	1	1018	40	20	
1	0	0	0	0	515	517	3	1018	40	20	
2	0	0	0	0	517	518	3	1018	40	20	
3	0	0	0	0	517	516	2	1018	40	20	
4	0	0	0	0	517	516	3	1019	40	20	
5	0	0	0	0	514	513	2	1018	40	20	
6	0	0	0	0	513	513	1	1018	40	20	
7	0	0	0	0	513	514	1	1018	40	20	
8	0	0	0	0	512	513	3	1019	40	20	
9	0	0	0	0	514	511	1	1018	40	20	
10	0	0	0	0	509	510	1	1018	40	20	
11	0	0	0	0	508	509	1	1018	40	20	
12	0	0	0	0	507	504	2	1018	40	20	
13	0	0	0	0	510	501	0	1018	40	20	
14	0	0	0	0	507	502	1	1018	40	20	
15	0	0	0	0	508	505	1	1018	40	20	
0	0	0	0	0	513	508	1	0	40	20	
1	0	0	0	0	514	513	2	0	40	20	
2	0	0	0	0	518	516	3	0	40	20	
3	0	0	0	0	516	519	3	0	40	20	
4	0	0	0	0	516	518	4	1019	40	20	
5	0	0	0	0	514	516	2	1018	40	20	
6	0	0	0	0	513	513	1	1018	40	20	
7	0	0	0	0	518	512	1	1018	40	20	
8	0	0	0	0	515	511	3	1018	40	20	
9	0	0	0	0	512	512	2	1018	40	20	
10	0	0	0	0	512	510	3	1018	40	20	
11	0	0	0	0	512	509	3	1018	40	20	
12	0	0	0	0	507	507	4	1019	40	20	
13	0	0	0	0	511	502	3	1018	40	20	
14	0	0	0	0	508	501	1	1018	40	20	
15	0	0	0	0	509	503	0	1018	40	20	
0	0	0	0	0	511	508	0	0	40	20	
1	0	0	0	0	512	511	0	0	40	20	
2	0	0	0	0	516	515	1	0	40	20	
3	0	0	0	0	515	516	3	0	40	20	
4	0	0	0	0	518	517	2	0	40	20	
5	0	0	0	0	518	518	3	0	40	20	
6	0	0	0	0	511	515	3	1018	40	20	
7	0	0	0	0	510	512	3	1018	40	20	
8	0	0	0	0	516	512	3	1019	40	20	
9	0	0	0	0	519	510	2	1018	40	20	
10	0	0	0	0	513	507	1	1018	40	20	
11	0	0	0	0	515	507	1	1018	40	20	
12	0	0	0	0	510	505	2	1019	40	20	
13	0	0	0	0	508	505	1	1018	40	20	
14	0	0	0	0	507	502	2	1018	40	20	
15	0	0	0	0	508	500	1	1018	40	20	
0	0	0	0	0	508	503	0	1018	40	20	
1	0	0	0	0	512	508	1	0	40	20	
2	0	0	0	0	513	511	2	0	40	20	
3	0	0	0	0	514	515	1	0	40	20	
4	0	0	0	0	521	517	3	0	40	20	
5	0	0	0	0	515	517	2	0	40	20	
6	0	0	0	0	515	516	1	1018	40	20	
7	0	0	0	0	515	513	2	1018	40	20	
8	0	0	0	0	513	512	3	1019	40	20	
9	0	0	0	0	510	512	3	1018	40	20	
10	0	0	0	0	512	511	3	1018	40	20	
11	0	0	0	0	514	510	3	1018	40	20	
12	0	0	0	0	510	510	3	1019	40	20	
13	0	0	0	0	506	505	2	1018	40	20	
14	0	0	0	0	505	503	1	1018	40	20	
15	0	0	0	0	505	503	0	1018	40	20	
0	0	0	0	0	509	501	2	1018	40	20	
1	0	0	0	0	511	507	0	0	40	20	
2	0	0	0	0	515	510	0	0	40	20	
3	0	0	0	0	519	513	2	0	40	20	
4	0	0	0	0	519	515	2	0	40	20	
5	0	0	0	0	513	517	3	0	40	20	
6	0	0	0	0	507	515	3	707	40	20	
7	0	0	0	0	512	517	3	1018	40	20	
8	0	0	0	0	515	513	3	1019	40	20	
9	0	0	0	0	515	512	3	1018	40	20	
10	0	0	0	0	515	511	2	1018	40	20	
11	0	0	0	0	513	508	1	1018	40	20	
12	0	0	0	0	510	507	3	1019	40	20	
13	0	0	0	0	516	505	1	1018	40	20	
14	0	0	0	0	520	502	1	1018	40	20	
15	0	0	0	0	519	502	0	1018	40	20	
0	0	0	0	0	512	498	1	1018	40	20	
1	0	0	0	0	509	500	0	1018	40	20	
2	0	0	0	0	511	504	0	1018	40	20	
3	0	0	0	0	516	510	0	0	40	20	
4	0	0	0	0	518	513	3	0	40	20	
5	0	0	0	0	515	515	2	0	40	20	
6	0	0	0	0	526	518	3	1018	40	20	
7	0	0	0	0	526	517	3	1018	40	20	
8	0	0	0	0	514	515	2	1018	40	20	
9	0	0	0	0	508	513	3	1018	40	20	
10	0	0	0	0	508	512	3	1018	40	20	
11	0	0	0	0	507	512	3	1018	40	20	
12	0	0	0	0	504	511	3	1019	40	20	
13	0	0	0	0	496	511	3	1018	40	20	
14	0	0	0	0	496	510	3	1018	40	20	
15	0	0	0	0	495	507	2	1018	40	20	
0	0	0	0	0	496	503	2	1019	40	20	
1	0	0	0	0	500	503	3	1018	40	20	
2	0	0	0	0	507	504	2	1018	40	20	
3	0	0	0	0	507	510	1	1018	40	20	
4	0	0	0	0	515	515	2	1018	40	20	
5	0	0	0	0	524	516	1	1018	40	20	
6	0	0	0	0	529	517	1	1018	40	20	
7	0	0	0	0	529	518	1	1018	40	20	
8	0	0	0	0	531	514	1	1018	40	20	
9	0	0	0	0	526	512	3	1018	40	20	
10	0	0	0	0	524	510	2	1018	40	20	
11	0	0	0	0	528	511	3	1018	40	20	
12	0	0	0	0	522	512	3	1019	40	20	
13	0	0	0	0	503	507	3	1018	40	20	
14	0	0	0	0	492	507	1	1018	40	20	
15	0	0	0	0	496	506	0	1018	40	20	
0	0	0	0	0	507	505	2	1019	40	20	
1	0	0	0	0	515	503	0	1018	40	20	
2	0	0	0	0	526	504	2	1018	40	20	
3	0	0	0	0	521	507	3	1018	40	20	
4	0	0	0	0	519	510	3	1018	40	20	
5	0	0	0	0	526	513	3	1018	40	20	
6	0	0	0	0	536	516	3	1018	40	20	
7	0	0	0	0	538	516	3	1018	40	20	
8	0	0	0	0	520	514	3	1019	40	20	
9	0	0	0	0	508	513	1	1018	40	20	
10	0	0	0	0	509	511	1	1018	40	20	
11	0	0	0	0	499	511	0	1018	40	20	
12	0	0	0	0	469	511	4	1019	40	20	
13	0	0	0	0	460	509	1	1018	40	20	
14	0	0	0	0	489	508	1	1018	40	20	
15	0	0	0	0	505	508	2	1018	40	20	
0	0	0	0	0	496	506	4	1019	40	20	
1	0	0	0	0	490	504	3	1018	40	20	
2	0	0	0	0	495	502	3	1018	40	20	
3	0	0	0	0	512	504	2	1018	40	20	
4	0	0	0	0	536	507	3	1019	40	20	
5	0	0	0	0	530	512	3	1018	40	20	
6	0	0	0	0	527	516	3	1018	40	20	
7	0	0	0	0	539	517	3	1018	40	20	
8	0	0	0	0	552	516	3	1019	40	20	
9	0	0	0	0	541	516	3	1018	40	20	
10	0	0	0	0	536	516	3	1018	40	20	
11	0	0	0	0	553	512	3	1018	40	20	
12	0	0	0	0	549	512	3	1019	40	20	
13	0	0	0	0	543	514	3	1018	40	20	
14	0	0	0	0	549	512	2	1018	40	20	
15	0	0	0	0	532	511	1	1018	40	20	
0	0	0	0	0	511	508	3	1019	40	20	
1	0	0	0	0	508	506	1	1018	40	20	
2	0	0	0	0	510	504	1	1018	40	20	
3	0	0	0	0	488	506	3	1018	40	20	
4	0	0	0	0	463	507	3	1018	40	20	
5	0	0	0	0	447	512	3	1018	40	20	
6	0	0	0	0	459	517	3	1018	40	20	
7	0	0	0	0	455	520	3	1018	40	20	
8	0	0	0	0	456	521	3	1018	40	20	
9	0	0	0	0	452	520	2	1018	40	20	
10	0	0	0	0	484	518	1	1018	40	20	
11	0	0	0	0	525	515	1	1018	40	20	
12	0	0	0	0	524	515	2	1018	40	20	
13	0	0	0	0	525	515	1	1018	40	20	
14	0	0	0	0	544	515	1	1018	40	20	
15	0	0	0	0	551	514	1	1018	40	20	
0	0	0	0	0	556	511	3	1019	40	20	
1	0	0	0	0	556	508	3	1018	40	20	
2	0	0	0	0	557	505	3	1018	40	20	
3	0	0	0	0	559	505	3	1018	40	20	
4	0	0	0	0	537	504	3	1019	40	20	
5	0	0	0	0	527	508	3	1018	40	20	
6	0	0	0	0	518	511	3	1018	40	20	
7	0	0	0	0	507	516	3	1018	40	20	
8	0	0	0	0	508	517	3	1018	40	20	
9	0	0	0	0	497	518	3	1018	40	20	
10	0	0	0	0	487	519	2	1018	40	20	
11	0	0	0	0	484	516	1	1018	40	20	
12	0	0	0	0	493	515	3	1019	40	20	
13	0	0	0	0	510	514	1	1018	40	20	
14	0	0	0	0	508	516	1	1018	40	20	
15	0	0	0	0	503	515	3	1018	40	20	
0	0	0	0	0	510	513	3	1019	40	20	
1	0	0	0	0	505	511	3	1018	40	20	
2	0	0	0	0	471	508	3	1018	40	20	
3	0	0	0	0	425	505	3	1018	40	20	
4	0	0	0	0	420	501	2	1018	40	20	
5	0	0	0	0	441	503	2	1018	40	20	
6	0	0	0	0	485	508	1	1018	40	20	
7	0	0	0	0	498	513	1	1018	40	20	
8	0	0	0	0	513	514	3	1018	40	20	
9	0	0	0	0	457	516	1	1018	40	20	
10	0	0	0	0	455	517	1	1018	40	20	
11	0	0	0	0	512	517	3	1018	40	20	
12	0	0	0	0	542	515	3	1018	40	20	
13	0	0	0	0	560	513	3	1018	40	20	
14	0	0	0	0	593	513	3	1018	40	20	
15	0	0	0	0	542	514	3	1018	40	20	
0	0	0	0	0	498	511	3	1018	40	20	
1	0	0	0	0	538	509	2	1018	40	20	
2	0	0	0	0	615	506	1	1018	40	20	
3	0	0	0	0	655	503	1	1018	40	20	
4	0	0	0	0	679	503	4	1019	40	20	
5	0	0	0	0	662	501	3	1018	40	20	
6	0	0	0	0	644	505	3	1018	40	20	
7	0	0	0	0	585	510	3	1018	40	20	
8	0	0	0	0	526	514	3	1019	40	20	
9	0	0	0	0	521	516	2	1018	40	20	
10	0	0	0	0	529	516	1	1018	40	20	
11	0	0	0	0	507	516	1	1018	40	20	
12	0	0	0	0	500	513	2	1019	40	20	
13	0	0	0	0	491	512	1	1018	40	20	
14	0	0	0	0	473	513	2	1018	40	20	
15	0	0	0	0	476	512	3	1018	40	20	
0	0	0	0	0	472	515	3	1019	40	20	
1	0	0	0	0	415	513	3	1018	40	20	
2	0	0	0	0	394	511	2	1018	40	20	
3	0	0	0	0	375	510	0	1018	40	20	
4	0	0	0	0	356	508	3	1019	40	20	
5	0	0	0	0	381	506	1	1018	40	20	
6	0	0	0	0	429	505	3	1018	40	20	
7	0	0	0	0	465	509	3	1018	40	20	
8	0	0	0	0	484	513	3	1019	40	20	
9	0	0	0	0	495	515	3	1018	40	20	
10	0	0	0	0	531	517	3	1018	40	20	
11	0	0	0	0	578	518	2	1018	40	20	
12	0	0	0	0	565	518	3	1019	40	20	
13	0	0	0	0	563	516	1	1018	40	20	
14	0	0	0	0	595	514	0	1018	40	20	
15	0	0	0	0	572	514	1	1018	40	20	
0	0	0	0	0	569	514	3	1019	40	20	
1	0	0	0	0	556	513	3	1018	40	20	
2	0	0	0	0	540	512	2	1018	40	20	
3	0	0	0	0	532	511	3	1018	40	20	
4	0	0	0	0	528	508	3	1019	40	20	
5	0	0	0	0	524	504	1	1018	40	20	
6	0	0	0	0	542	504	1	1018	40	20	
7	0	0	0	0	573	505	0	1018	40	20	
8	0	0	0	0	580	507	2	1018	40	20	
9	0	0	0	0	559	511	3	1018	40	20	
10	0	0	0	0	529	513	3	1018	40	20	
11	0	0	0	0	513	514	3	1018	40	20	
12	0	0	0	0	517	513	3	1019	40	20	
13	0	0	0	0	519	514	3	1018	40	20	
14	0	0	0	0	496	515	2	1018	40	20	
15	0	0	0	0	475	512	1	1018	40	20	
0	0	0	0	0	474	511	3	1019	40	20	
1	0	0	0	0	473	510	0	1018	40	20	
2	0	0	0	0	484	510	1	1018	40	20	
3	0	0	0	0	490	510	3	1018	40	20	
4	0	0	0	0	475	506	4	1019	40	20	
5	0	0	0	0	441	502	3	1018	40	20	
6	0	0	0	0	438	502	3	1018	40	20	
7	0	0	0	0	406	502	3	1018	40	20	
8	0	0	0	0	391	504	3	1018	40	20	
9	0	0	0	0	400	509	2	1018	40	20	
10	0	0	0	0	363	514	1	1018	40	20	
11	0	0	0	0	425	518	0	1018	40	20	
12	0	0	0	0	509	516	2	1019	40	20	
13	0	0	0	0	560	516	1	1018	40	20	
14	0	0	0	0	589	513	1	1018	40	20	
15	0	0	0	0	629	512	2	1018	40	20	
0	0	0	0	0	659	511	3	1018	40	20	
1	0	0	0	0	669	512	3	1018	40	20	
2	0	0	0	0	657	511	3	1018	40	20	
3	0	0	0	0	626	509	3	1018	40	20	
4	0	0	0	0	636	507	3	1018	40	20	
5	0	0	0	0	569	504	2	1018	40	20	
6	0	0	0	0	472	503	1	1018	40	20	
7	0	0	0	0	425	501	1	1018	40	20	
8	0	0	0	0	433	500	2	1019	40	20	
9	0	0	0	0	462	504	0	1018	40	20	
10	0	0	0	0	469	509	3	1018	40	20	
11	0	0	0	0	501	513	3	1018	40	20	
12	0	0	0	0	519	515	3	1018	40	20	
13	0	0	0	0	534	517	3	1018	40	20	
14	0	0	0	0	553	518	3	1018	40	20	
15	0	0	0	0	548	518	3	1018	40	20	
0	0	0	0	0	535	515	3	1019	40	20	
1	0	0	0	0	546	511	3	1018	40	20	
2	0	0	0	0	538	512	3	1018	40	20	
3	0	0	0	0	500	512	1	1018	40	20	
4	0	0	0	0	482	510	2	1019	40	20	
5	0	0	0	0	492	508	2	1018	40	20	
6	0	0	0	0	491	506	1	1018	40	20	
7	0	0	0	0	492	505	0	1018	40	20	
8	0	0	0	0	468	506	2	1019	40	20	
9	0	0	0	0	466	504	0	1018	40	20	
10	0	0	0	0	475	508	1	1018	40	20	
11	0	0	0	0	503	512	1	531	40	20	
12	0	0	0	0	512	513	3	1018	40	20	
13	0	0	0	0	515	514	1	1018	40	20	
14	0	0	0	0	523	515	3	1018	40	20	
15	0	0	0	0	547	515	2	1018	40	20	
0	0	0	0	0	533	514	2	1018	40	20	
1	0	0	0	0	529	511	3	1018	40	20	
2	0	0	0	0	530	513	3	1018	40	20	
3	0	0	0	0	509	512	2	1018	40	20	
4	0	0	0	0	503	510	4	1019	40	20	
5	0	0	0	0	491	506	3	1018	40	20	
6	0	0	0	0	484	504	3	1018	40	20	
7	0	0	0	0	479	501	2	1018	40	20	
8	0	0	0	0	480	500	2	1019	40	20	
9	0	0	0	0	483	499	2	1018	40	20	
10	0	0	0	0	485	502	1	1018	40	20	
11	0	0	0	0	499	507	1	1018	40	20	
12	0	0	0	0	514	511	3	305	40	20	
13	0	0	0	0	519	512	1	1012	40	20	
14	0	0	0	0	516	514	1	1018	40	20	
15	0	0	0	0	521	516	2	1018	40	20	
0	0	0	0	0	529	515	4	1019	40	20	
1	0	0	0	0	535	515	1	1018	40	20	
2	0	0	0	0	540	511	3	1018	40	20	
3	0	0	0	0	536	512	3	1018	40	20	
4	0	0	0	0	532	511	2	1018	40	20	
5	0	0	0	0	523	509	3	1018	40	20	
6	0	0	0	0	527	508	3	1018	40	20	
7	0	0	0	0	511	506	2	1018	40	20	
8	0	0	0	0	509	504	2	1018	40	20	
9	0	0	0	0	497	502	2	1018	40	20	
10	0	0	0	0	495	499	0	1018	40	20	
11	0	0	0	0	507	504	0	45	40	20	
12	0	0	0	0	502	508	3	0	40	20	
13	0	0	0	0	512	511	1	0	40	20	
14	0	0	0	0	521	514	1	0	40	20	
15	0	0	0	0	527	516	3	681	40	20	
0	0	0	0	0	512	515	3	1018	40	20	
1	0	0	0	0	498	513	3	1018	40	20	
2	0	0	0	0	492	514	3	1018	40	20	
3	0	0	0	0	497	515	2	1018	40	20	
4	0	0	0	0	524	515	3	1019	40	20	
5	0	0	0	0	539	514	1	1018	40	20	
6	0	0	0	0	517	511	0	1018	40	20	
7	0	0	0	0	514	509	2	1018	40	20	
8	0	0	0	0	519	505	4	1019	40	20	
9	0	0	0	0	527	502	3	1018	40	20	
10	0	0	0	0	523	504	3	1018	40	20	
11	0	0	0	0	514	505	1	1017	40	20	
12	0	0	0	0	500	507	0	0	40	20	
13	0	0	0	0	499	512	1	0	40	20	
14	0	0	0	0	503	515	1	0	40	20	
15	0	0	0	0	514	516	1	0	40	20	
0	0	0	0	0	515	517	3	0	40	20	
1	0	0	0	0	511	514	1	0	40	20	
2	0	0	0	0	512	513	3	1018	40	20	
3	0	0	0	0	513	513	3	1018	40	20	
4	0	0	0	0	511	513	4	1019	40	20	
5	0	0	0	0	523	512	3	1018	40	20	
6	0	0	0	0	527	512	3	1018	40	20	
7	0	0	0	0	514	511	2	1018	40	20	
8	0	0	0	0	505	507	1	1019	40	20	
9	0	0	0	0	497	505	1	1018	40	20	
10	0	0	0	0	491	504	1	1018	40	20	
11	0	0	0	0	516	503	2	1017	40	20	
12	0	0	0	0	524	504	2	0	40	20	
13	0	0	0	0	521	507	1	0	40	20	
14	0	0	0	0	522	514	2	0	40	20	
15	0	0	0	0	513	519	2	0	40	20	
0	0	0	0	0	510	519	3	0	40	20	
1	0	0	0	0	519	519	2	0	40	20	
2	0	0	0	0	516	518	1	0	40	20	
3	0	0	0	0	510	515	1	0	40	20	
4	0	0	0	0	508	512	3	0	40	20	
5	0	0	0	0	523	514	3	1018	40	20	
6	0	0	0	0	515	514	3	1018	40	20	
7	0	0	0	0	500	513	3	1018	40	20	
8	0	0	0	0	492	512	3	1019	40	20	
9	0	0	0	0	499	509	3	1018	40	20	
10	0	0	0	0	508	507	2	1018	40	20	
11	0	0	0	0	508	504	0	1018	40	20	
12	0	0	0	0	512	503	0	0	40	20	
13	0	0	0	0	512	504	0	0	40	20	
14	0	0	0	0	520	510	0	0	40	20	
15	0	0	0	0	519	513	0	0	40	20	
0	0	0	0	0	520	515	3	0	40	20	
1	0	0	0	0	530	515	3	0	40	20	
2	0	0	0	0	529	515	3	0	40	20	
3	0	0	0	0	522	514	2	0	40	20	
4	0	0	0	0	513	512	4	0	40	20	
5	0	0	0	0	517	509	3	0	40	20	
6	0	0	0	0	511	511	3	1018	40	20	
7	0	0	0	0	517	511	2	1018	40	20	
8	0	0	0	0	512	508	3	1018	40	20	
9	0	0	0	0	505	505	2	1018	40	20	
10	0	0	0	0	505	503	1	1018	40	20	
11	0	0	0	0	502	501	0	1017	40	20	
12	0	0	0	0	505	499	1	0	40	20	
13	0	0	0	0	499	499	0	0	40	20	
14	0	0	0	0	499	503	1	0	40	20	
15	0	0	0	0	500	510	1	0	40	20	
0	0	0	0	0	507	513	1	0	40	20	
1	0	0	0	0	512	516	3	0	40	20	
2	0	0	0	0	528	518	3	0	40	20	
3	0	0	0	0	537	518	2	0	40	20	
4	0	0	0	0	538	518	3	0	40	20	
5	0	0	0	0	515	514	1	0	40	20	
6	0	0	0	0	508	513	1	0	40	20	
7	0	0	0	0	520	514	1	968	40	20	
8	0	0	0	0	519	510	2	1019	40	20	
9	0	0	0	0	519	509	3	1018	40	20	
10	0	0	0	0	521	505	3	1018	40	20	
11	0	0	0	0	508	500	3	1018	40	20	
12	0	0	0	0	510	498	1	1018	40	20	
13	0	0	0	0	522	494	0	0	40	20	
14	0	0	0	0	509	499	0	0	40	20	
15	0	0	0	0	503	505	0	0	40	20	
0	0	0	0	0	500	509	2	0	40	20	
1	0	0	0	0	456	513	2	0	40	20	
2	0	0	0	0	465	516	3	0	40	20	
3	0	0	0	0	492	516	3	0	40	20	
4	0	0	0	0	495	515	3	0	40	20	
5	0	0	0	0	521	511	2	0	40	20	
6	0	0	0	0	547	508	1	0	40	20	
7	0	0	0	0	550	510	1	0	40	20	
8	0	0	0	0	531	509	4	1018	40	20	
9	0	0	0	0	513	507	2	1018	40	20	
10	0	0	0	0	499	505	3	1018	40	20	
11	0	0	0	0	513	503	3	1018	40	20	
12	0	0	0	0	524	502	3	1019	40	20	
13	0	0	0	0	525	499	1	1018	40	20	
14	0	0	0	0	516	499	0	0	40	20	
15	0	0	0	0	516	503	0	0	40	20	
0	0	0	0	0	529	508	1	0	40	20	
1	0	0	0	0	535	511	0	0	40	20	
2	0	0	0	0	524	514	0	0	40	20	
3	0	0	0	0	506	514	1	0	40	20	
4	0	0	0	0	504	515	4	0	40	20	
5	0	0	0	0	496	515	3	0	40	20	
6	0	0	0	0	494	513	3	0	40	20	
7	0	0	0	0	486	514	3	1018	40	20	
8	0	0	0	0	527	513	3	1019	40	20	
9	0	0	0	0	517	511	3	1018	40	20	
10	0	0	0	0	494	511	2	1018	40	20	
11	0	0	0	0	510	510	1	1018	40	20	
12	0	0	0	0	523	507	3	1018	40	20	
13	0	0	0	0	504	504	0	1018	40	20	
14	0	0	0	0	498	503	0	1018	40	20	
15	0	0	0	0	493	504	0	0	40	20	
0	0	0	0	0	511	508	0	0	40	20	
1	0	0	0	0	496	511	1	0	40	20	
2	0	0	0	0	498	517	2	0	40	20	
3	0	0	0	0	515	519	3	0	40	20	
4	0	0	0	0	490	518	2	0	40	20	
5	0	0	0	0	491	519	2	0	40	20	
6	0	0	0	0	536	517	1	0	40	20	
7	0	0	0	0	531	515	2	1018	40	20	
8	0	0	0	0	533	513	4	1018	40	20	
9	0	0	0	0	536	514	3	1018	40	20	
10	0	0	0	0	556	512	3	1018	40	20	
11	0	0	0	0	579	510	3	1018	40	20	
12	0	0	0	0	542	506	2	1018	40	20	
13	0	0	0	0	522	503	2	1018	40	20	
14	0	0	0	0	506	500	0	1018	40	20	
15	0	0	0	0	520	499	0	0	40	20	
0	0	0	0	0	525	499	0	0	40	20	
1	0	0	0	0	536	503	0	0	40	20	
2	0	0	0	0	519	511	1	0	40	20	
3	0	0	0	0	526	513	1	0	40	20	
4	0	0	0	0	503	515	4	0	40	20	
5	0	0	0	0	479	514	3	0	40	20	
6	0	0	0	0	473	515	2	0	40	20	
7	0	0	0	0	484	513	1	0	40	20	
8	0	0	0	0	508	512	2	0	40	20	
9	0	0	0	0	481	512	1	0	40	20	
10	0	0	0	0	426	512	2	1018	40	20	
11	0	0	0	0	434	512	3	1018	40	20	
12	0	0	0	0	469	508	1	1019	40	20	
13	0	0	0	0	486	504	2	1018	40	20	
14	0	0	0	0	474	502	2	1000	40	20	
15	0	0	0	0	455	500	0	0	40	20	
0	0	0	0	0	445	499	0	0	40	20	
1	0	0	0	0	482	500	0	0	40	20	
2	0	0	0	0	547	507	0	0	40	20	
3	0	0	0	0	629	510	0	0	40	20	
4	0	0	0	0	675	515	3	0	40	20	
5	0	0	0	0	652	515	3	0	40	20	
6	0	0	0	0	575	517	3	0	40	20	
7	0	0	0	0	543	515	3	0	40	20	
8	0	0	0	0	548	513	3	0	40	20	
9	0	0	0	0	597	513	2	0	40	20	
10	0	0	0	0	600	516	1	0	40	20	
11	0	0	0	0	532	515	2	1018	40	20	
12	0	0	0	0	451	512	4	1019	40	20	
13	0	0	0	0	443	509	3	1018	40	20	
14	0	0	0	0	454	507	2	1018	40	20	
15	0	0	0	0	481	506	1	1018	40	20	
0	0	0	0	0	522	502	1	0	40	20	
1	0	0	0	0	544	502	0	0	40	20	
2	0	0	0	0	531	506	0	0	40	20	
3	0	0	0	0	536	511	0	0	40	20	
4	0	0	0	0	526	512	0	0	40	20	
5	0	0	0	0	493	516	2	0	40	20	
6	0	0	0	0	468	517	0	0	40	20	
7	0	0	0	0	447	517	1	0	40	20	
8	0	0	0	0	430	513	3	0	40	20	
9	0	0	0	0	420	511	2	0	40	20	
10	0	0	0	0	351	511	3	0	40	20	
11	0	0	0	0	367	512	3	1018	40	20	
12	0	0	0	0	408	510	4	1019	40	20	
13	0	0	0	0	451	508	3	1018	40	20	
14	0	0	0	0	476	508	2	1018	40	20	
15	0	0	0	0	537	505	0	1018	40	20	
0	0	0	0	0	613	501	1	1019	40	20	
1	0	0	0	0	638	499	0	1018	40	20	
2	0	0	0	0	644	501	0	0	40	20	
3	0	0	0	0	673	506	1	0	40	20	
4	0	0	0	0	655	510	3	0	40	20	
5	0	0	0	0	660	514	2	0	40	20	
6	0	0	0	0	654	519	3	0	40	20	
7	0	0	0	0	593	521	2	0	40	20	
8	0	0	0	0	535	521	3	1019	40	20	
9	0	0	0	0	505	515	2	1018	40	20	
10	0	0	0	0	492	512	1	1018	40	20	
11	0	0	0	0	435	513	1	1018	40	20	
12	0	0	0	0	391	512	2	1018	40	20	
13	0	0	0	0	381	510	3	1018	40	20	
14	0	0	0	0	427	508	3	1018	40	20	
15	0	0	0	0	464	506	2	1018	40	20	
0	0	0	0	0	509	502	3	1019	40	20	
1	0	0	0	0	505	500	2	1018	40	20	
2	0	0	0	0	489	499	0	1018	40	20	
3	0	0	0	0	468	504	0	0	40	20	
4	0	0	0	0	494	508	0	0	40	20	
5	0	0	0	0	534	512	0	0	40	20	
6	0	0	0	0	535	515	3	0	40	20	
7	0	0	0	0	554	517	3	0	40	20	
8	0	0	0	0	560	516	5	1019	40	20	
9	0	0	0	0	546	513	3	1018	40	20	
10	0	0	0	0	547	511	3	1018	40	20	
11	0	0	0	0	570	512	3	1018	40	20	
12	0	0	0	0	543	511	3	1018	40	20	
13	0	0	0	0	560	510	2	1019	40	20	
14	0	0	0	0	555	510	1	1018	40	20	
15	0	0	0	0	496	509	1	1018	40	20	
0	0	0	0	0	447	504	3	1019	40	20	
1	0	0	0	0	408	502	0	1018	40	20	
2	0	0	0	0	441	501	0	1018	40	20	
3	0	0	0	0	456	502	0	1018	40	20	
4	0	0	0	0	474	506	2	0	40	20	
5	0	0	0	0	497	510	1	0	40	20	
6	0	0	0	0	531	516	2	0	40	20	
7	0	0	0	0	529	519	1	0	40	20	
8	0	0	0	0	489	519	2	0	40	20	
9	0	0	0	0	497	519	2	0	40	20	
10	0	0	0	0	516	518	1	0	40	20	
11	0	0	0	0	481	515	2	1018	40	20	
12	0	0	0	0	480	513	3	1019	40	20	
13	0	0	0	0	509	512	3	1018	40	20	
14	0	0	0	0	512	509	3	1018	40	20	
15	0	0	0	0	519	509	3	1018	40	20	
0	0	0	0	0	518	507	1	1019	40	20	
1	0	0	0	0	552	505	1	1018	40	20	
2	0	0	0	0	609	503	0	1018	40	20	
3	0	0	0	0	590	501	0	0	40	20	
4	0	0	0	0	569	503	1	0	40	20	
5	0	0	0	0	564	508	0	0	40	20	
6	0	0	0	0	495	512	1	0	40	20	
7	0	0	0	0	454	516	1	0	40	20	
8	0	0	0	0	479	517	4	0	40	20	
9	0	0	0	0	503	515	3	0	40	20	
10	0	0	0	0	496	514	3	0	40	20	
11	0	0	0	0	483	511	2	0	40	20	
12	0	0	0	0	493	510	3	0	40	20	
13	0	0	0	0	506	509	1	0	40	20	
14	0	0	0	0	483	510	2	680	40	20	
15	0	0	0	0	507	508	3	1018	40	20	
0	0	0	0	0	505	507	3	1019	40	20	
1	0	0	0	0	500	504	2	1018	40	20	
2	0	0	0	0	520	501	1	145	40	20	
3	0	0	0	0	522	500	0	0	40	20	
4	0	0	0	0	520	500	1	0	40	20	
5	0	0	0	0	505	503	0	0	40	20	
6	0	0	0	0	529	508	0	0	40	20	
7	0	0	0	0	518	513	0	0	40	20	
8	0	0	0	0	497	516	3	0	40	20	
9	0	0	0	0	528	516	1	0	40	20	
10	0	0	0	0	546	516	3	0	40	20	
11	0	0	0	0	536	516	3	0	40	20	
12	0	0	0	0	534	514	3	0	40	20	
13	0	0	0	0	441	512	3	0	40	20	
14	0	0	0	0	397	512	2	0	40	20	
15	0	0	0	0	412	512	1	0	40	20	
0	0	0	0	0	454	510	3	437	40	20	
1	0	0	0	0	521	507	1	1018	40	20	
2	0	0	0	0	537	503	0	548	40	20	
3	0	0	0	0	582	502	0	0	40	20	
4	0	0	0	0	557	500	1	0	40	20	
5	0	0	0	0	542	501	0	0	40	20	
6	0	0	0	0	529	505	0	0	40	20	
7	0	0	0	0	598	509	0	0	40	20	
8	0	0	0	0	597	513	2	0	40	20	
9	0	0	0	0	604	512	2	0	40	20	
10	0	0	0	0	537	513	2	0	40	20	
11	0	0	0	0	486	514	2	0	40	20	
12	0	0	0	0	496	513	4	0	40	20	
13	0	0	0	0	502	510	2	0	40	20	
14	0	0	0	0	490	512	3	0	40	20	
15	0	0	0	0	484	513	2	0	40	20	
0	0	0	0	0	493	513	3	0	40	20	
1	0	0	0	0	481	512	2	0	40	20	
2	0	0	0	0	520	508	1	0	40	20	
3	0	0	0	0	467	505	0	0	40	20	
4	0	0	0	0	478	501	0	0	40	20	
5	0	0	0	0	518	499	0	0	40	20	
6	0	0	0	0	519	505	0	0	40	20	
7	0	0	0	0	542	508	0	0	40	20	
8	0	0	0	0	490	511	0	0	40	20	
9	0	0	0	0	455	514	0	0	40	20	
10	0	0	0	0	490	515	2	0	40	20	
11	0	0	0	0	462	515	2	0	40	20	
12	0	0	0	0	461	515	4	0	40	20	
13	0	0	0	0	468	512	3	0	40	20	
14	0	0	0	0	510	512	2	0	40	20	
15	0	0	0	0	546	513	3	0	40	20	
0	0	0	0	0	564	512	3	0	40	20	
1	0	0	0	0	598	512	3	0	40	20	
2	0	0	0	0	557	509	2	0	40	20	
3	0	0	0	0	489	506	0	0	40	20	
4	0	0	0	0	484	503	0	0	40	20	
5	0	0	0	0	539	503	0	0	40	20	
6	0	0	0	0	515	504	0	0	40	20	
7	0	0	0	0	515	509	0	0	40	20	
8	0	0	0	0	508	512	1	0	40	20	
9	0	0	0	0	551	515	0	0	40	20	
10	0	0	0	0	540	516	0	0	40	20	
11	0	0	0	0	538	516	0	0	40	20	
12	0	0	0	0	565	516	1	0	40	20	
13	0	0	0	0	586	513	0	0	40	20	
14	0	0	0	0	539	512	1	0	40	20	
15	0	0	0	0	497	513	0	0	40	20	
0	0	0	0	0	479	514	3	0	40	20	
1	0	0	0	0	503	512	2	0	40	20	
2	0	0	0	0	494	511	2	0	40	20	
3	0	0	0	0	512	508	1	0	40	20	
4	0	0	0	0	547	505	1	0	40	20	
5	0	0	0	0	473	503	0	0	40	20	
6	0	0	0	0	441	502	0	0	40	20	
7	0	0	0	0	483	504	0	0	40	20	
8	0	0	0	0	481	510	3	0	40	20	
9	0	0	0	0	503	511	2	0	40	20	
10	0	0	0	0	474	514	2	0	40	20	
11	0	0	0	0	498	515	1	0	40	20	
12	0	0	0	0	523	515	1	0	40	20	
13	0	0	0	0	527	515	2	0	40	20	
14	0	0	0	0	535	513	0	0	40	20	
15	0	0	0	0	535	512	0	0	40	20	
0	0	0	0	0	527	511	3	0	40	20	
1	0	0	0	0	488	511	0	0	40	20	
2	0	0	0	0	519	511	0	0	40	20	
3	0	0	0	0	518	508	1	0	40	20	
4	0	0	0	0	458	504	1	0	40	20	
5	0	0	0	0	487	502	1	0	40	20	
6	0	0	0	0	510	500	2	0	40	20	
7	0	0	0	0	529	500	0	0	40	20	
8	0	0	0	0	524	503	1	0	40	20	
9	0	0	0	0	566	507	0	0	40	20	
10	0	0	0	0	527	509	0	0	40	20	
11	0	0	0	0	512	513	0	0	40	20	
12	0	0	0	0	526	513	1	0	40	20	
13	0	0	0	0	491	515	2	0	40	20	
14	0	0	0	0	431	514	1	0	40	20	
15	0	0	0	0	491	514	2	0	40	20	
0	0	0	0	0	504	510	3	0	40	20	
1	0	0	0	0	521	510	1	0	40	20	
2	0	0	0	0	443	511	1	0	40	20	
3	0	0	0	0	411	510	0	0	40	20	
4	0	0	0	0	438	507	1	0	40	20	
5	0	0	0	0	455	506	1	0	40	20	
6	0	0	0	0	563	504	1	0	40	20	
7	0	0	0	0	580	503	1	0	40	20	
8	0	0	0	0	536	503	1	0	40	20	
9	0	0	0	0	496	507	1	0	40	20	
10	0	0	0	0	558	511	0	0	40	20	
11	0	0	0	0	555	516	0	0	40	20	
12	0	0	0	0	612	519	3	0	40	20	
13	0	0	0	0	639	516	0	0	40	20	
14	0	0	0	0	667	515	2	0	40	20	
15	0	0	0	0	581	514	1	0	40	20	
0	0	0	0	0	523	511	1	0	40	20	
1	0	0	0	0	472	509	2	0	40	20	
2	0	0	0	0	471	511	2	0	40	20	
3	0	0	0	0	507	510	1	0	40	20	
4	0	0	0	0	517	506	1	0	40	20	
5	0	0	0	0	499	504	1	0	40	20	
6	0	0	0	0	512	501	0	0	40	20	
7	0	0	0	0	514	499	0	0	40	20	
8	0	0	0	0	539	495	2	0	40	20	
9	0	0	0	0	600	498	0	0	40	20	
10	0	0	0	0	545	502	0	0	40	20	
11	0	0	0	0	460	507	0	0	40	20	
12	0	0	0	0	416	510	1	0	40	20	
13	0	0	0	0	433	513	0	0	40	20	
14	0	0	0	0	470	515	0	0	40	20	
15	0	0	0	0	456	514	2	0	40	20	
0	0	0	0	0	478	513	3	0	40	20	
1	0	0	0	0	588	511	2	0	40	20	
2	0	0	0	0	554	513	3	0	40	20	
3	0	0	0	0	448	514	2	0	40	20	
4	0	0	0	0	432	511	3	0	40	20	
5	0	0	0	0	464	508	2	0	40	20	
6	0	0	0	0	474	505	1	0	40	20	
7	0	0	0	0	506	502	1	0	40	20	
8	0	0	0	0	520	503	0	0	40	20	
9	0	0	0	0	529	501	0	0	40	20	
10	0	0	0	0	544	504	0	0	40	20	
11	0	0	0	0	557	508	0	0	40	20	
12	0	0	0	0	519	510	1	0	40	20	
13	0	0	0	0	526	513	0	0	40	20	
14	0	0	0	0	527	516	2	0	40	20	
15	0	0	0	0	530	517	1	0	40	20	
0	0	0	0	0	487	515	2	0	40	20	
1	0	0	0	0	509	513	2	0	40	20	
2	0	0	0	0	506	510	2	0	40	20	
3	0	0	0	0	486	511	2	0	40	20	
4	0	0	0	0	517	512	2	0	40	20	
5	0	0	0	0	564	512	1	0	40	20	
6	0	0	0	0	511	511	0	860	40	20	
7	0	0	0	0	498	508	0	252	40	20	
8	0	0	0	0	526	504	2	0	40	20	
9	0	0	0	0	516	502	1	0	40	20	
10	0	0	0	0	489	503	2	0	40	20	
11	0	0	0	0	523	507	0	0	40	20	
12	0	0	0	0	543	511	1	0	40	20	
13	0	0	0	0	486	513	0	0	40	20	
14	0	0	0	0	496	516	0	0	40	20	
15	0	0	0	0	540	519	2	0	40	20	
0	0	0	0	0	577	518	3	0	40	20	
1	0	0	0	0	511	516	2	0	40	20	
2	0	0	0	0	401	514	3	0	40	20	
3	0	0	0	0	426	517	1	0	40	20	
4	0	0	0	0	499	515	3	1018	40	20	
5	0	0	0	0	489	513	1	1018	40	20	
6	0	0	0	0	439	512	1	1018	40	20	
7	0	0	0	0	457	510	2	1018	40	20	
8	0	0	0	0	472	505	3	1019	40	20	
9	0	0	0	0	504	502	1	1018	40	20	
10	0	0	0	0	574	499	1	0	40	20	
11	0	0	0	0	510	503	0	0	40	20	
12	0	0	0	0	507	510	1	0	40	20	
13	0	0	0	0	615	511	0	0	40	20	
14	0	0	0	0	653	516	2	0	40	20	
15	0	0	0	0	635	518	1	0	40	20	
0	0	0	0	0	587	519	3	0	40	20	
1	0	0	0	0	546	518	3	0	40	20	
2	0	0	0	0	600	518	2	0	40	20	
3	0	0	0	0	554	515	1	1018	40	20	
4	0	0	0	0	506	514	4	1019	40	20	
5	0	0	0	0	450	512	1	1018	40	20	
6	0	0	0	0	483	511	3	1018	40	20	
7	0	0	0	0	458	508	2	1018	40	20	
8	0	0	0	0	480	505	1	1018	40	20	
9	0	0	0	0	539	503	1	1018	40	20	
10	0	0	0	0	520	501	0	1018	40	20	
11	0	0	0	0	452	499	0	1018	40	20	
12	0	0	0	0	483	503	3	0	40	20	
13	0	0	0	0	524	508	1	0	40	20	
14	0	0	0	0	514	513	1	0	40	20	
15	0	0	0	0	488	516	1	0	40	20	
0	0	0	0	0	484	517	3	0	40	20	
1	0	0	0	0	505	518	2	0	40	20	
2	0	0	0	0	505	518	1	0	40	20	
3	0	0	0	0	500	516	1	1018	40	20	
4	0	0	0	0	494	515	3	1018	40	20	
5	0	0	0	0	515	515	3	1018	40	20	
6	0	0	0	0	520	515	3	1018	40	20	
7	0	0	0	0	607	514	3	1018	40	20	
8	0	0	0	0	529	510	3	1019	40	20	
9	0	0	0	0	514	509	2	1018	40	20	
10	0	0	0	0	473	506	1	1018	40	20	
11	0	0	0	0	478	503	0	1018	40	20	
12	0	0	0	0	525	503	1	1018	40	20	
13	0	0	0	0	475	508	0	0	40	20	
14	0	0	0	0	445	512	0	0	40	20	
15	0	0	0	0	475	516	0	0	40	20	
0	0	0	0	0	505	517	3	0	40	20	
1	0	0	0	0	510	516	3	0	40	20	
2	0	0	0	0	550	515	4	1018	40	20	
3	0	0	0	0	536	516	4	1018	40	20	
4	0	0	0	0	521	514	3	1019	40	20	
5	0	0	0	0	476	512	4	1018	40	20	
6	0	0	0	0	454	514	3	1018	40	20	
7	0	0	0	0	434	514	2	1018	40	20	
8	0	0	0	0	470	512	3	1019	40	20	
9	0	0	0	0	529	507	1	1018	40	20	
10	0	0	0	0	526	503	0	1018	40	20	
11	0	0	0	0	508	503	0	1018	40	20	
12	0	0	0	0	528	500	1	1018	40	20	
13	0	0	0	0	575	502	0	1018	40	20	
14	0	0	0	0	564	507	1	1018	40	20	
15	0	0	0	0	569	511	1	0	40	20	
0	0	0	0	0	529	513	1	0	40	20	
1	0	0	0	0	491	516	1	0	40	20	
2	0	0	0	0	464	518	1	0	40	20	
3	0	0	0	0	463	517	3	1018	40	20	
4	0	0	0	0	496	514	4	1019	40	20	
5	0	0	0	0	554	511	3	1018	40	20	
6	0	0	0	0	592	510	4	1018	40	20	
7	0	0	0	0	622	510	2	1018	40	20	
8	0	0	0	0	662	508	3	1019	40	20	
9	0	0	0	0	607	506	1	1018	40	20	
10	0	0	0	0	568	507	1	1018	40	20	
11	0	0	0	0	536	504	2	1018	40	20	
12	0	0	0	0	513	501	1	1019	40	20	
13	0	0	0	0	540	499	0	1018	40	20	
14	0	0	0	0	505	504	1	544	40	20	
15	0	0	0	0	463	510	0	0	40	20	
0	0	0	0	0	493	512	1	0	40	20	
1	0	0	0	0	467	514	0	0	40	20	
2	0	0	0	0	457	516	3	0	40	20	
3	0	0	0	0	422	519	3	0	40	20	
4	0	0	0	0	494	517	5	0	40	20	
5	0	0	0	0	457	515	4	1018	40	20	
6	0	0	0	0	429	514	2	1018	40	20	
7	0	0	0	0	495	515	1	1018	40	20	
8	0	0	0	0	517	515	4	1019	40	20	
9	0	0	0	0	479	513	1	1018	40	20	
10	0	0	0	0	488	510	3	1018	40	20	
11	0	0	0	0	517	506	2	1018	40	20	
12	0	0	0	0	507	504	3	1019	40	20	
13	0	0	0	0	461	500	1	1018	40	20	
14	0	0	0	0	488	500	0	0	40	20	
15	0	0	0	0	505	505	0	0	40	20	
0	0	0	0	0	511	508	0	0	40	20	
1	0	0	0	0	553	514	0	0	40	20	
2	0	0	0	0	525	516	3	0	40	20	
3	0	0	0	0	510	517	3	0	40	20	
4	0	0	0	0	530	517	5	0	40	20	
5	0	0	0	0	540	514	3	0	40	20	
6	0	0	0	0	533	513	4	1018	40	20	
7	0	0	0	0	530	512	2	1018	40	20	
8	0	0	0	0	548	512	3	1019	40	20	
9	0	0	0	0	519	510	2	1018	40	20	
10	0	0	0	0	509	510	1	1018	40	20	
11	0	0	0	0	532	507	1	1018	40	20	
12	0	0	0	0	514	503	3	1019	40	20	
13	0	0	0	0	473	499	1	1018	40	20	
14	0	0	0	0	510	499	1	1018	40	20	
15	0	0	0	0	527	501	0	0	40	20	
0	0	0	0	0	532	506	0	0	40	20	
1	0	0	0	0	512	510	0	0	40	20	
2	0	0	0	0	521	514	0	0	40	20	
3	0	0	0	0	504	516	2	0	40	20	
4	0	0	0	0	501	515	3	0	40	20	
5	0	0	0	0	515	513	3	0	40	20	
6	0	0	0	0	523	513	4	767	40	20	
7	0	0	0	0	506	513	2	1018	40	20	
8	0	0	0	0	479	513	2	1019	40	20	
9	0	0	0	0	528	513	1	1018	40	20	
10	0	0	0	0	532	514	2	1018	40	20	
11	0	0	0	0	505	512	3	1018	40	20	
12	0	0	0	0	515	507	1	1018	40	20	
13	0	0	0	0	515	503	2	1018	40	20	
14	0	0	0	0	500	501	0	1018	40	20	
15	0	0	0	0	477	500	0	1018	40	20	
0	0	0	0	0	520	501	0	0	40	20	
1	0	0	0	0	499	508	0	0	40	20	
2	0	0	0	0	507	512	0	0	40	20	
3	0	0	0	0	522	514	0	0	40	20	
4	0	0	0	0	526	516	4	0	40	20	
5	0	0	0	0	526	516	2	0	40	20	
6	0	0	0	0	568	513	3	0	40	20	
7	0	0	0	0	505	512	3	649	40	20	
8	0	0	0	0	492	511	3	1018	40	20	
9	0	0	0	0	519	511	4	1018	40	20	
10	0	0	0	0	553	511	2	1018	40	20	
11	0	0	0	0	521	509	1	1018	40	20	
12	0	0	0	0	466	506	3	1018	40	20	
13	0	0	0	0	504	504	0	1018	40	20	
14	0	0	0	0	455	502	2	1018	40	20	
15	0	0	0	0	492	504	1	1018	40	20	
0	0	0	0	0	510	502	1	0	40	20	
1	0	0	0	0	531	505	1	0	40	20	
2	0	0	0	0	546	512	0	0	40	20	
3	0	0	0	0	558	515	0	0	40	20	
4	0	0	0	0	555	516	2	0	40	20	
5	0	0	0	0	536	517	1	0	40	20	
6	0	0	0	0	524	519	3	0	40	20	
7	0	0	0	0	493	517	3	0	40	20	
8	0	0	0	0	532	514	2	0	40	20	
9	0	0	0	0	519	512	4	1018	40	20	
10	0	0	0	0	491	510	3	1018	40	20	
11	0	0	0	0	470	510	2	1018	40	20	
12	0	0	0	0	469	507	4	1018	40	20	
13	0	0	0	0	501	505	1	1018	40	20	
14	0	0	0	0	537	503	0	1018	40	20	
15	0	0	0	0	542	503	1	1018	40	20	
0	0	0	0	0	486	501	1	0	40	20	
1	0	0	0	0	490	503	1	0	40	20	
2	0	0	0	0	507	509	0	0	40	20	
3	0	0	0	0	523	513	0	0	40	20	
4	0	0	0	0	526	516	2	0	40	20	
5	0	0	0	0	539	518	0	0	40	20	
6	0	0	0	0	552	517	2	0	40	20	
7	0	0	0	0	526	515	3	0	40	20	
8	0	0	0	0	530	512	3	0	40	20	
9	0	0	0	0	499	511	3	0	40	20	
10	0	0	0	0	486	512	2	1014	40	20	
11	0	0	0	0	502	514	2	1018	40	20	
12	0	0	0	0	500	511	2	1019	40	20	
13	0	0	0	0	516	509	1	1018	40	20	
14	0	0	0	0	498	507	0	1018	40	20	
15	0	0	0	0	482	503	2	1018	40	20	
0	0	0	0	0	491	499	0	1018	40	20	
1	0	0	0	0	503	498	1	0	40	20	
2	0	0	0	0	531	503	1	0	40	20	
3	0	0	0	0	535	509	0	0	40	20	
4	0	0	0	0	540	514	1	0	40	20	
5	0	0	0	0	522	516	1	0	40	20	
6	0	0	0	0	502	519	1	0	40	20	
7	0	0	0	0	504	519	3	0	40	20	
8	0	0	0	0	511	516	5	0	40	20	
9	0	0	0	0	506	511	4	1018	40	20	
10	0	0	0	0	519	511	3	1018	40	20	
11	0	0	0	0	561	512	3	1018	40	20	
12	0	0	0	0	530	510	4	1019	40	20	
13	0	0	0	0	464	507	2	1018	40	20	
14	0	0	0	0	457	503	2	1018	40	20	
15	0	0	0	0	499	502	2	1018	40	20	
0	0	0	0	0	526	502	2	1019	40	20	
1	0	0	0	0	510	500	1	1018	40	20	
2	0	0	0	0	506	500	1	1018	40	20	
3	0	0	0	0	516	502	0	0	40	20	
4	0	0	0	0	528	508	0	0	40	20	
5	0	0	0	0	527	512	0	0	40	20	
6	0	0	0	0	498	514	1	0	40	20	
7	0	0	0	0	541	516	2	0	40	20	
8	0	0	0	0	554	517	4	0	40	20	
9	0	0	0	0	540	515	3	1018	40	20	
10	0	0	0	0	508	512	4	1018	40	20	
11	0	0	0	0	500	512	4	1018	40	20	
12	0	0	0	0	519	513	3	1018	40	20	
13	0	0	0	0	514	513	2	1018	40	20	
14	0	0	0	0	509	512	1	1018	40	20	
15	0	0	0	0	533	508	0	1018	40	20	
0	0	0	0	0	519	507	3	1019	40	20	
1	0	0	0	0	482	504	1	1018	40	20	
2	0	0	0	0	503	504	1	1018	40	20	
3	0	0	0	0	479	504	0	0	40	20	
4	0	0	0	0	466	508	1	0	40	20	
5	0	0	0	0	496	511	1	0	40	20	
6	0	0	0	0	544	516	0	0	40	20	
7	0	0	0	0	561	519	0	0	40	20	
8	0	0	0	0	560	518	3	0	40	20	
9	0	0	0	0	502	516	2	0	40	20	
10	0	0	0	0	448	516	4	1018	40	20	
11	0	0	0	0	491	514	3	1018	40	20	
12	0	0	0	0	538	513	4	1019	40	20	
13	0	0	0	0	515	513	3	1018	40	20	
14	0	0	0	0	478	511	3	1018	40	20	
15	0	0	0	0	495	509	3	1018	40	20	
0	0	0	0	0	494	506	3	1019	40	20	
1	0	0	0	0	493	503	2	1018	40	20	
2	0	0	0	0	493	502	1	1018	40	20	
3	0	0	0	0	509	502	0	1018	40	20	
4	0	0	0	0	506	506	1	659	40	20	
5	0	0	0	0	521	508	0	0	40	20	
6	0	0	0	0	535	511	0	0	40	20	
7	0	0	0	0	545	515	0	0	40	20	
8	0	0	0	0	526	514	3	0	40	20	
9	0	0	0	0	538	516	1	0	40	20	
10	0	0	0	0	520	517	2	1018	40	20	
11	0	0	0	0	512	514	2	1018	40	20	
12	0	0	0	0	510	513	3	1018	40	20	
13	0	0	0	0	507	513	3	1018	40	20	
14	0	0	0	0	498	514	3	1018	40	20	
15	0	0	0	0	501	510	3	1018	40	20	
0	0	0	0	0	501	507	4	1019	40	20	
1	0	0	0	0	516	503	1	1018	40	20	
2	0	0	0	0	519	502	2	1018	40	20	
3	0	0	0	0	503	499	1	1018	40	20	
4	0	0	0	0	512	498	1	1018	40	20	
5	0	0	0	0	516	503	0	0	40	20	
6	0	0	0	0	564	507	0	0	40	20	
7	0	0	0	0	568	513	0	0	40	20	
8	0	0	0	0	519	518	4	0	40	20	
9	0	0	0	0	515	517	1	0	40	20	
10	0	0	0	0	508	515	4	0	40	20	
11	0	0	0	0	512	514	3	0	40	20	
12	0	0	0	0	489	513	5	1019	40	20	
13	0	0	0	0	478	513	3	1018	40	20	
14	0	0	0	0	498	512	4	1018	40	20	
15	0	0	0	0	510	511	3	1018	40	20	
0	0	0	0	0	492	510	2	1019	40	20	
1	0	0	0	0	504	507	2	1018	40	20	
2	0	0	0	0	505	505	1	1018	40	20	
3	0	0	0	0	508	504	0	1018	40	20	
4	0	0	0	0	511	502	2	1019	40	20	
5	0	0	0	0	501	500	0	1018	40	20	
6	0	0	0	0	496	506	1	0	40	20	
7	0	0	0	0	507	512	1	0	40	20	
8	0	0	0	0	539	515	1	0	40	20	
9	0	0	0	0	517	516	3	0	40	20	
10	0	0	0	0	495	518	3	0	40	20	
11	0	0	0	0	558	518	3	1018	40	20	
12	0	0	0	0	540	514	4	1018	40	20	
13	0	0	0	0	491	511	1	1018	40	20	
14	0	0	0	0	490	510	2	1018	40	20	
15	0	0	0	0	520	511	2	1018	40	20	
0	0	0	0	0	560	508	4	1019	40	20	
1	0	0	0	0	529	507	3	1018	40	20	
2	0	0	0	0	496	504	2	1018	40	20	
3	0	0	0	0	475	502	1	1018	40	20	
4	0	0	0	0	499	501	2	1019	40	20	
5	0	0	0	0	509	501	0	1018	40	20	
6	0	0	0	0	502	505	1	1018	40	20	
7	0	0	0	0	513	510	1	1017	40	20	
8	0	0	0	0	525	512	3	0	40	20	
9	0	0	0	0	539	514	2	0	40	20	
10	0	0	0	0	538	516	2	0	40	20	
11	0	0	0	0	545	517	2	1018	40	20	
12	0	0	0	0	551	513	4	1019	40	20	
13	0	0	0	0	525	510	2	1018	40	20	
14	0	0	0	0	495	510	3	1018	40	20	
15	0	0	0	0	519	511	3	1018	40	20	
0	0	0	0	0	481	511	2	1019	40	20	
1	0	0	0	0	464	509	3	1018	40	20	
2	0	0	0	0	490	505	2	1018	40	20	
3	0	0	0	0	530	503	0	1018	40	20	
4	0	0	0	0	513	501	4	1019	40	20	
5	0	0	0	0	503	500	0	1018	40	20	
6	0	0	0	0	521	501	2	1018	40	20	
7	0	0	0	0	503	506	1	1018	40	20	
8	0	0	0	0	504	508	2	1017	40	20	
9	0	0	0	0	519	513	2	1018	40	20	
10	0	0	0	0	552	516	1	1018	40	20	
11	0	0	0	0	535	518	1	1018	40	20	
12	0	0	0	0	532	517	4	1019	40	20	
13	0	0	0	0	555	515	1	1018	40	20	
14	0	0	0	0	563	512	3	1018	40	20	
15	0	0	0	0	523	512	3	1018	40	20	
0	0	0	0	0	471	511	3	1018	40	20	
1	0	0	0	0	463	510	2	1018	40	20	
2	0	0	0	0	488	508	1	1018	40	20	
3	0	0	0	0	463	508	0	1018	40	20	
4	0	0	0	0	461	506	4	1019	40	20	
5	0	0	0	0	464	505	3	1018	40	20	
6	0	0	0	0	460	503	3	1018	40	20	
7	0	0	0	0	504	504	2	1018	40	20	
8	0	0	0	0	491	508	1	1019	40	20	
9	0	0	0	0	519	512	1	1018	40	20	
10	0	0	0	0	542	515	1	1018	40	20	
11	0	0	0	0	528	519	2	1018	40	20	
12	0	0	0	0	544	519	2	1018	40	20	
13	0	0	0	0	551	517	3	1018	40	20	
14	0	0	0	0	569	515	3	1018	40	20	
15	0	0	0	0	582	512	3	1018	40	20	
0	0	0	0	0	592	512	2	1018	40	20	
1	0	0	0	0	499	512	2	1018	40	20	
2	0	0	0	0	442	511	1	1018	40	20	
3	0	0	0	0	452	510	0	1018	40	20	
4	0	0	0	0	461	508	4	1019	40	20	
5	0	0	0	0	433	505	3	1018	40	20	
6	0	0	0	0	469	503	3	1018	40	20	
7	0	0	0	0	487	501	3	1018	40	20	
8	0	0	0	0	498	502	2	1018	40	20	
9	0	0	0	0	517	508	1	1018	40	20	
10	0	0	0	0	536	511	1	1018	40	20	
11	0	0	0	0	540	514	3	1018	40	20	
12	0	0	0	0	546	514	3	1018	40	20	
13	0	0	0	0	558	515	3	1018	40	20	
14	0	0	0	0	561	514	3	1018	40	20	
15	0	0	0	0	582	513	1	1018	40	20	
0	0	0	0	0	525	511	3	1019	40	20	
1	0	0	0	0	505	512	1	1018	40	20	
2	0	0	0	0	518	512	3	1018	40	20	
3	0	0	0	0	511	513	3	1018	40	20	
4	0	0	0	0	491	510	3	1018	40	20	
5	0	0	0	0	541	505	3	1018	40	20	
6	0	0	0	0	575	506	3	1018	40	20	
7	0	0	0	0	487	504	1	1018	40	20	
8	0	0	0	0	408	504	2	1018	40	20	
9	0	0	0	0	459	509	0	1018	40	20	
10	0	0	0	0	519	513	2	1018	40	20	
11	0	0	0	0	545	516	2	513	40	20	
12	0	0	0	0	533	517	2	1018	40	20	
13	0	0	0	0	499	518	4	1018	40	20	
14	0	0	0	0	521	517	2	1018	40	20	
15	0	0	0	0	518	514	1	1018	40	20	
0	0	0	0	0	537	510	3	1018	40	20	
1	0	0	0	0	509	510	1	1018	40	20	
2	0	0	0	0	508	512	1	1018	40	20	
3	0	0	0	0	574	513	1	1018	40	20	
4	0	0	0	0	468	511	3	1019	40	20	
5	0	0	0	0	508	508	3	1018	40	20	
6	0	0	0	0	537	505	3	1018	40	20	
7	0	0	0	0	486	504	2	1018	40	20	
8	0	0	0	0	472	501	1	1019	40	20	
9	0	0	0	0	442	504	1	1018	40	20	
10	0	0	0	0	439	508	2	1018	40	20	
11	0	0	0	0	454	513	1	0	40	20	
12	0	0	0	0	477	517	3	0	40	20	
13	0	0	0	0	492	517	1	1018	40	20	
14	0	0	0	0	504	518	1	1018	40	20	
15	0	0	0	0	506	517	3	1018	40	20	
0	0	0	0	0	521	513	3	1019	40	20	
1	0	0	0	0	566	511	3	1018	40	20	
2	0	0	0	0	600	513	2	1018	40	20	
3	0	0	0	0	586	514	1	1018	40	20	
4	0	0	0	0	585	511	3	1019	40	20	
5	0	0	0	0	548	507	1	1018	40	20	
6	0	0	0	0	545	507	3	1018	40	20	
7	0	0	0	0	559	504	3	1018	40	20	
8	0	0	0	0	550	502	4	1019	40	20	
9	0	0	0	0	557	499	2	1018	40	20	
10	0	0	0	0	513	503	1	1018	40	20	
11	0	0	0	0	487	509	0	1017	40	20	
12	0	0	0	0	506	511	3	0	40	20	
13	0	0	0	0	582	513	0	0	40	20	
14	0	0	0	0	604	515	3	1018	40	20	
15	0	0	0	0	486	515	3	1018	40	20	
0	0	0	0	0	412	512	3	1018	40	20	
1	0	0	0	0	406	511	3	1018	40	20	
2	0	0	0	0	441	511	3	1018	40	20	
3	0	0	0	0	473	511	1	1018	40	20	
4	0	0	0	0	499	511	3	1019	40	20	
5	0	0	0	0	505	506	1	1018	40	20	
6	0	0	0	0	502	505	2	1018	40	20	
7	0	0	0	0	512	502	1	1018	40	20	
8	0	0	0	0	530	500	4	1019	40	20	
9	0	0	0	0	507	499	3	1018	40	20	
10	0	0	0	0	491	499	2	1018	40	20	
11	0	0	0	0	517	504	2	1018	40	20	
12	0	0	0	0	516	507	1	1017	40	20	
13	0	0	0	0	502	511	3	250	40	20	
14	0	0	0	0	495	514	3	1018	40	20	
15	0	0	0	0	536	515	2	1018	40	20	
0	0	0	0	0	517	515	3	1018	40	20	
1	0	0	0	0	519	513	1	1018	40	20	
2	0	0	0	0	524	512	1	1018	40	20	
3	0	0	0	0	541	513	1	1018	40	20	
4	0	0	0	0	518	511	3	1019	40	20	
5	0	0	0	0	495	510	2	1018	40	20	
6	0	0	0	0	482	508	3	1018	40	20	
7	0	0	0	0	483	506	3	1018	40	20	
8	0	0	0	0	502	503	3	1018	40	20	
9	0	0	0	0	495	503	3	1018	40	20	
10	0	0	0	0	505	502	2	1018	40	20	
11	0	0	0	0	571	504	1	1018	40	20	
12	0	0	0	0	567	508	1	1017	40	20	
13	0	0	0	0	488	511	1	0	40	20	
14	0	0	0	0	498	515	1	0	40	20	
15	0	0	0	0	551	516	1	876	40	20	
0	0	0	0	0	566	515	3	1018	40	20	
1	0	0	0	0	518	513	1	1018	40	20	
2	0	0	0	0	480	512	3	1018	40	20	
3	0	0	0	0	505	510	3	1018	40	20	
4	0	0	0	0	528	511	3	1019	40	20	
5	0	0	0	0	501	510	2	1018	40	20	
6	0	0	0	0	472	510	3	1018	40	20	
7	0	0	0	0	431	508	3	1018	40	20	
8	0	0	0	0	432	504	2	1018	40	20	
9	0	0	0	0	401	503	2	1018	40	20	
10	0	0	0	0	447	503	0	1018	40	20	
11	0	0	0	0	492	502	0	1018	40	20	
12	0	0	0	0	525	505	3	1019	40	20	
13	0	0	0	0	580	507	2	0	40	20	
14	0	0	0	0	640	511	3	0	40	20	
15	0	0	0	0	648	515	3	0	40	20	
0	0	0	0	0	635	518	3	1018	40	20	
1	0	0	0	0	631	517	2	1018	40	20	
2	0	0	0	0	554	516	1	1018	40	20	
3	0	0	0	0	517	513	1	1018	40	20	
4	0	0	0	0	521	511	1	1018	40	20	
5	0	0	0	0	515	513	3	1018	40	20	
6	0	0	0	0	492	513	3	1018	40	20	
7	0	0	0	0	469	511	3	1018	40	20	
8	0	0	0	0	417	508	3	1019	40	20	
9	0	0	0	0	393	504	1	1018	40	20	
10	0	0	0	0	425	502	1	1018	40	20	
11	0	0	0	0	465	501	1	1018	40	20	
12	0	0	0	0	499	501	3	1019	40	20	
13	0	0	0	0	527	504	2	1018	40	20	
14	0	0	0	0	585	508	1	0	40	20	
15	0	0	0	0	533	511	2	0	40	20	
0	0	0	0	0	520	514	3	0	40	20	
1	0	0	0	0	566	516	2	0	40	20	
2	0	0	0	0	615	515	1	1018	40	20	
3	0	0	0	0	640	515	1	1018	40	20	
4	0	0	0	0	494	513	2	1018	40	20	
5	0	0	0	0	428	512	3	1018	40	20	
6	0	0	0	0	412	512	3	1018	40	20	
7	0	0	0	0	425	511	2	1018	40	20	
8	0	0	0	0	457	508	3	1018	40	20	
9	0	0	0	0	473	507	1	1018	40	20	
10	0	0	0	0	509	505	1	1018	40	20	
11	0	0	0	0	512	504	3	1018	40	20	
12	0	0	0	0	505	503	3	1019	40	20	
13	0	0	0	0	541	503	2	1018	40	20	
14	0	0	0	0	542	507	2	1018	40	20	
15	0	0	0	0	534	511	1	0	40	20	
0	0	0	0	0	545	515	3	0	40	20	
1	0	0	0	0	543	516	1	1018	40	20	
2	0	0	0	0	547	519	2	1018	40	20	
3	0	0	0	0	521	515	2	1018	40	20	
4	0	0	0	0	529	515	4	1019	40	20	
5	0	0	0	0	511	512	3	1018	40	20	
6	0	0	0	0	518	512	3	1018	40	20	
7	0	0	0	0	535	513	3	1018	40	20	
8	0	0	0	0	527	511	3	1018	40	20	
9	0	0	0	0	528	509	3	1018	40	20	
10	0	0	0	0	531	506	2	1018	40	20	
11	0	0	0	0	495	503	1	1018	40	20	
12	0	0	0	0	497	502	3	1018	40	20	
13	0	0	0	0	497	502	1	1018	40	20	
14	0	0	0	0	508	505	3	1018	40	20	
15	0	0	0	0	504	509	3	1018	40	20	
0	0	0	0	0	513	510	2	1018	40	20	
1	0	0	0	0	497	511	3	1018	40	20	
2	0	0	0	0	501	513	2	1018	40	20	
3	0	0	0	0	514	515	1	1018	40	20	
4	0	0	0	0	496	513	3	1018	40	20	
5	0	0	0	0	502	512	1	1018	40	20	
6	0	0	0	0	520	511	3	1018	40	20	
7	0	0	0	0	513	513	2	1018	40	20	
8	0	0	0	0	517	513	2	1019	40	20	
9	0	0	0	0	509	509	3	1018	40	20	
10	0	0	0	0	510	508	1	1018	40	20	
11	0	0	0	0	518	506	0	1018	40	20	
12	0	0	0	0	529	504	2	1018	40	20	
13	0	0	0	0	504	502	3	1018	40	20	
14	0	0	0	0	485	503	3	1018	40	20	
15	0	0	0	0	516	507	2	1018	40	20	
0	0	0	0	0	525	512	2	1019	40	20	
1	0	0	0	0	467	515	2	1018	40	20	
2	0	0	0	0	481	517	1	1018	40	20	
3	0	0	0	0	510	518	1	1018	40	20	
4	0	0	0	0	529	518	4	1019	40	20	
5	0	0	0	0	536	515	3	1018	40	20	
6	0	0	0	0	521	512	3	1018	40	20	
7	0	0	0	0	552	513	3	1018	40	20	
8	0	0	0	0	556	511	3	1018	40	20	
9	0	0	0	0	468	512	2	1018	40	20	
10	0	0	0	0	459	510	1	1018	40	20	
11	0	0	0	0	488	509	1	1018	40	20	
12	0	0	0	0	523	506	4	1019	40	20	
13	0	0	0	0	529	504	3	1018	40	20	
14	0	0	0	0	529	502	3	1018	40	20	
15	0	0	0	0	550	504	2	1018	40	20	
0	0	0	0	0	509	506	3	1019	40	20	
1	0	0	0	0	489	509	2	1018	40	20	
2	0	0	0	0	530	513	1	1018	40	20	
3	0	0	0	0	525	513	0	1018	40	20	
4	0	0	0	0	521	513	2	1018	40	20	
5	0	0	0	0	503	513	3	1018	40	20	
6	0	0	0	0	479	512	3	1018	40	20	
7	0	0	0	0	527	511	3	1018	40	20	
8	0	0	0	0	533	512	3	1018	40	20	
9	0	0	0	0	498	513	2	1018	40	20	
10	0	0	0	0	523	513	2	1018	40	20	
11	0	0	0	0	524	511	1	1018	40	20	
12	0	0	0	0	519	506	1	1019	40	20	
13	0	0	0	0	555	503	1	1018	40	20	
14	0	0	0	0	456	502	1	1018	40	20	
15	0	0	0	0	437	500	2	1018	40	20	
0	0	0	0	0	483	506	3	1019	40	20	
1	0	0	0	0	489	510	2	0	40	20	
2	0	0	0	0	502	515	3	0	40	20	
3	0	0	0	0	483	519	3	0	40	20	
4	0	0	0	0	445	521	3	1019	40	20	
5	0	0	0	0	468	520	2	1018	40	20	
6	0	0	0	0	477	518	2	1018	40	20	
7	0	0	0	0	492	516	1	1018	40	20	
8	0	0	0	0	463	516	3	1019	40	20	
9	0	0	0	0	495	514	1	1018	40	20	
10	0	0	0	0	562	515	1	1018	40	20	
11	0	0	0	0	620	512	1	1018	40	20	
12	0	0	0	0	642	510	1	1018	40	20	
13	0	0	0	0	608	506	3	1018	40	20	
14	0	0	0	0	592	505	3	1018	40	20	
15	0	0	0	0	616	504	3	1018	40	20	
0	0	0	0	0	647	507	3	1019	40	20	
1	0	0	0	0	638	507	2	1018	40	20	
2	0	0	0	0	560	512	1	1018	40	20	
3	0	0	0	0	483	516	1	1017	40	20	
4	0	0	0	0	469	515	4	1018	40	20	
5	0	0	0	0	464	516	3	1018	40	20	
6	0	0	0	0	494	517	3	1018	40	20	
7	0	0	0	0	459	515	3	1018	40	20	
8	0	0	0	0	462	513	2	1018	40	20	
9	0	0	0	0	503	514	2	1018	40	20	
10	0	0	0	0	448	515	1	1018	40	20	
11	0	0	0	0	444	514	1	1018	40	20	
12	0	0	0	0	472	511	2	1018	40	20	
13	0	0	0	0	508	509	3	1018	40	20	
14	0	0	0	0	524	508	3	1018	40	20	
15	0	0	0	0	514	505	3	1018	40	20	
0	0	0	0	0	484	504	1	1019	40	20	
1	0	0	0	0	483	504	0	1018	40	20	
2	0	0	0	0	521	507	0	0	40	20	
3	0	0	0	0	526	511	0	0	40	20	
4	0	0	0	0	495	516	4	0	40	20	
5	0	0	0	0	501	517	3	0	40	20	
6	0	0	0	0	505	517	3	472	40	20	
7	0	0	0	0	514	518	3	1018	40	20	
8	0	0	0	0	521	517	3	1019	40	20	
9	0	0	0	0	519	513	2	1018	40	20	
10	0	0	0	0	524	513	1	1018	40	20	
11	0	0	0	0	529	513	1	1018	40	20	
12	0	0	0	0	519	512	4	1019	40	20	
13	0	0	0	0	512	509	3	1018	40	20	
14	0	0	0	0	511	506	3	1018	40	20	
15	0	0	0	0	495	504	3	1018	40	20	
0	0	0	0	0	482	502	2	1019	40	20	
1	0	0	0	0	490	499	1	1018	40	20	
2	0	0	0	0	519	504	0	0	40	20	
3	0	0	0	0	520	509	0	0	40	20	
4	0	0	0	0	503	513	2	0	40	20	
5	0	0	0	0	505	514	0	0	40	20	
6	0	0	0	0	516	515	2	0	40	20	
7	0	0	0	0	544	516	3	0	40	20	
8	0	0	0	0	531	513	3	1018	40	20	
9	0	0	0	0	482	511	3	1018	40	20	
10	0	0	0	0	505	510	3	1018	40	20	
11	0	0	0	0	517	511	3	1018	40	20	
12	0	0	0	0	524	511	3	1019	40	20	
13	0	0	0	0	501	509	3	1018	40	20	
14	0	0	0	0	507	507	2	1018	40	20	
15	0	0	0	0	507	504	1	1018	40	20	
0	0	0	0	0	520	502	3	1019	40	20	
1	0	0	0	0	504	501	1	1018	40	20	
2	0	0	0	0	513	502	0	1018	40	20	
3	0	0	0	0	539	506	1	0	40	20	
4	0	0	0	0	538	511	0	0	40	20	
5	0	0	0	0	526	515	3	0	40	20	
6	0	0	0	0	531	518	3	0	40	20	
7	0	0	0	0	499	517	3	0	40	20	
8	0	0	0	0	463	518	3	691	40	20	
9	0	0	0	0	504	515	1	1018	40	20	
10	0	0	0	0	521	513	1	1018	40	20	
11	0	0	0	0	521	514	1	1018	40	20	
12	0	0	0	0	519	511	2	1018	40	20	
13	0	0	0	0	511	511	1	1018	40	20	
14	0	0	0	0	509	512	2	1018	40	20	
15	0	0	0	0	505	508	2	1018	40	20	
0	0	0	0	0	503	505	4	1019	40	20	
1	0	0	0	0	505	501	3	1018	40	20	
2	0	0	0	0	512	502	2	1018	40	20	
3	0	0	0	0	522	505	1	1018	40	20	
4	0	0	0	0	523	508	1	1019	40	20	
5	0	0	0	0	529	513	0	1018	40	20	
6	0	0	0	0	507	515	3	1018	40	20	
7	0	0	0	0	507	518	3	1018	40	20	
8	0	0	0	0	534	518	3	1019	40	20	
9	0	0	0	0	537	515	3	1018	40	20	
10	0	0	0	0	472	514	2	1018	40	20	
11	0	0	0	0	491	512	1	1018	40	20	
12	0	0	0	0	518	513	4	1019	40	20	
13	0	0	0	0	540	511	1	1018	40	20	
14	0	0	0	0	557	508	3	1018	40	20	
15	0	0	0	0	533	506	3	1018	40	20	
0	0	0	0	0	467	504	4	1019	40	20	
1	0	0	0	0	405	503	3	1018	40	20	
2	0	0	0	0	441	503	2	1018	40	20	
3	0	0	0	0	492	502	1	1018	40	20	
4	0	0	0	0	528	505	3	1019	40	20	
5	0	0	0	0	529	509	1	1018	40	20	
6	0	0	0	0	545	513	1	1018	40	20	
7	0	0	0	0	568	514	0	1018	40	20	
8	0	0	0	0	560	516	4	1019	40	20	
9	0	0	0	0	568	518	3	1018	40	20	
10	0	0	0	0	577	515	3	1018	40	20	
11	0	0	0	0	546	513	2	1018	40	20	
12	0	0	0	0	501	512	3	1018	40	20	
13	0	0	0	0	472	513	1	1018	40	20	
14	0	0	0	0	469	513	1	1018	40	20	
15	0	0	0	0	489	509	2	1018	40	20	
0	0	0	0	0	499	508	1	1019	40	20	
1	0	0	0	0	480	505	2	1018	40	20	
2	0	0	0	0	486	502	3	1018	40	20	
3	0	0	0	0	515	502	2	1018	40	20	
4	0	0	0	0	535	502	3	1018	40	20	
5	0	0	0	0	556	505	1	1018	40	20	
6	0	0	0	0	587	509	1	1018	40	20	
7	0	0	0	0	564	514	3	1018	40	20	
8	0	0	0	0	522	515	3	1019	40	20	
9	0	0	0	0	499	517	3	1018	40	20	
10	0	0	0	0	508	516	3	1018	40	20	
11	0	0	0	0	470	515	1	1018	40	20	
12	0	0	0	0	470	513	3	1019	40	20	
13	0	0	0	0	483	512	1	1018	40	20	
14	0	0	0	0	489	513	1	1018	40	20	
15	0	0	0	0	501	512	2	1018	40	20	
0	0	0	0	0	507	512	4	1019	40	20	
1	0	0	0	0	509	508	3	1018	40	20	
2	0	0	0	0	507	507	3	1018	40	20	
3	0	0	0	0	492	506	3	1018	40	20	
4	0	0	0	0	517	503	2	1019	40	20	
5	0	0	0	0	519	502	0	1018	40	20	
6	0	0	0	0	513	506	0	0	40	20	
7	0	0	0	0	534	509	0	0	40	20	
8	0	0	0	0	531	513	2	0	40	20	
9	0	0	0	0	515	515	2	0	40	20	
10	0	0	0	0	519	517	3	0	40	20	
11	0	0	0	0	521	515	3	1017	40	20	
12	0	0	0	0	498	513	4	1019	40	20	
13	0	0	0	0	485	510	3	1018	40	20	
14	0	0	0	0	523	510	3	1018	40	20	
15	0	0	0	0	528	512	2	1018	40	20	
0	0	0	0	0	497	512	3	1019	40	20	
1	0	0	0	0	517	509	1	1018	40	20	
2	0	0	0	0	530	507	1	1018	40	20	
3	0	0	0	0	518	505	1	1018	40	20	
4	0	0	0	0	503	504	3	1018	40	20	
5	0	0	0	0	549	502	1	1018	40	20	
6	0	0	0	0	572	504	1	0	40	20	
7	0	0	0	0	437	510	1	0	40	20	
8	0	0	0	0	445	514	2	0	40	20	
9	0	0	0	0	468	515	2	0	40	20	
10	0	0	0	0	515	516	1	0	40	20	
11	0	0	0	0	529	515	1	0	40	20	
12	0	0	0	0	512	514	3	0	40	20	
13	0	0	0	0	518	512	3	403	40	20	
14	0	0	0	0	522	512	3	1018	40	20	
15	0	0	0	0	524	515	3	1018	40	20	
0	0	0	0	0	520	514	3	1018	40	20	
1	0	0	0	0	505	511	1	1018	40	20	
2	0	0	0	0	499	511	0	1018	40	20	
3	0	0	0	0	495	507	1	1018	40	20	
4	0	0	0	0	482	508	4	1019	40	20	
5	0	0	0	0	484	504	2	1018	40	20	
6	0	0	0	0	496	505	1	0	40	20	
7	0	0	0	0	497	509	1	0	40	20	
8	0	0	0	0	538	512	2	0	40	20	
9	0	0	0	0	518	517	1	0	40	20	
10	0	0	0	0	539	519	1	0	40	20	
11	0	0	0	0	566	520	1	0	40	20	
12	0	0	0	0	551	518	3	0	40	20	
13	0	0	0	0	531	517	2	0	40	20	
14	0	0	0	0	556	514	3	0	40	20	
15	0	0	0	0	576	514	3	744	40	20	
0	0	0	0	0	563	515	3	1019	40	20	
1	0	0	0	0	515	512	2	1018	40	20	
2	0	0	0	0	470	513	1	1018	40	20	
3	0	0	0	0	464	509	1	1018	40	20	
4	0	0	0	0	472	504	4	1019	40	20	
5	0	0	0	0	466	502	3	1018	40	20	
6	0	0	0	0	443	499	1	1018	40	20	
7	0	0	0	0	464	502	0	0	40	20	
8	0	0	0	0	505	504	2	0	40	20	
9	0	0	0	0	525	510	0	0	40	20	
10	0	0	0	0	524	514	3	0	40	20	
11	0	0	0	0	526	516	3	0	40	20	
12	0	0	0	0	552	518	3	0	40	20	
13	0	0	0	0	561	515	2	0	40	20	
14	0	0	0	0	543	513	1	0	40	20	
15	0	0	0	0	546	512	2	1018	40	20	
0	0	0	0	0	560	510	2	1018	40	20	
1	0	0	0	0	555	511	2	1018	40	20	
2	0	0	0	0	531	510	3	1018	40	20	
3	0	0	0	0	513	508	2	1018	40	20	
4	0	0	0	0	516	507	3	1018	40	20	
5	0	0	0	0	507	505	1	1018	40	20	
6	0	0	0	0	523	503	1	1018	40	20	
7	0	0	0	0	513	503	2	1018	40	20	
8	0	0	0	0	492	503	2	106	40	20	
9	0	0	0	0	431	508	1	0	40	20	
10	0	0	0	0	455	513	3	0	40	20	
11	0	0	0	0	507	517	1	0	40	20	
12	0	0	0	0	540	517	3	0	40	20	
13	0	0	0	0	501	515	1	855	40	20	
14	0	0	0	0	497	514	2	1018	40	20	
15	0	0	0	0	538	512	3	1018	40	20	
0	0	0	0	0	549	513	4	1019	40	20	
1	0	0	0	0	503	513	3	1018	40	20	
2	0	0	0	0	501	512	2	1018	40	20	
3	0	0	0	0	507	511	1	1018	40	20	
4	0	0	0	0	496	509	3	1019	40	20	
5	0	0	0	0	468	504	1	1018	40	20	
6	0	0	0	0	481	504	3	1018	40	20	
7	0	0	0	0	505	504	2	1018	40	20	
8	0	0	0	0	512	502	3	1018	40	20	
9	0	0	0	0	514	507	2	1018	40	20	
10	0	0	0	0	513	511	0	0	40	20	
11	0	0	0	0	519	515	0	0	40	20	
12	0	0	0	0	525	517	4	967	40	20	
13	0	0	0	0	518	516	1	1018	40	20	
14	0	0	0	0	532	516	3	1018	40	20	
15	0	0	0	0	529	516	3	1018	40	20	
0	0	0	0	0	559	514	3	1019	40	20	
1	0	0	0	0	540	512	2	1018	40	20	
2	0	0	0	0	513	513	1	1018	40	20	
3	0	0	0	0	467	512	0	1018	40	20	
4	0	0	0	0	469	511	3	1019	40	20	
5	0	0	0	0	508	506	3	1018	40	20	
6	0	0	0	0	504	502	3	1018	40	20	
7	0	0	0	0	506	501	3	1018	40	20	
8	0	0	0	0	505	497	3	1019	40	20	
9	0	0	0	0	516	500	1	1018	40	20	
10	0	0	0	0	510	505	0	1018	40	20	
11	0	0	0	0	505	510	3	1018	40	20	
12	0	0	0	0	510	512	4	1019	40	20	
13	0	0	0	0	523	515	3	1018	40	20	
14	0	0	0	0	532	513	3	1018	40	20	
15	0	0	0	0	533	514	2	1018	40	20	
0	0	0	0	0	495	513	3	1019	40	20	
1	0	0	0	0	489	510	1	1018	40	20	
2	0	0	0	0	502	511	1	1018	40	20	
3	0	0	0	0	514	512	2	1018	40	20	
4	0	0	0	0	526	511	4	1019	40	20	
5	0	0	0	0	539	508	3	1018	40	20	
6	0	0	0	0	522	506	3	1018	40	20	
7	0	0	0	0	510	505	1	1018	40	20	
8	0	0	0	0	519	503	3	1019	40	20	
9	0	0	0	0	513	504	1	1018	40	20	
10	0	0	0	0	509	508	2	1018	40	20	
11	0	0	0	0	521	511	2	0	40	20	
12	0	0	0	0	527	515	1	0	40	20	
13	0	0	0	0	533	516	3	0	40	20	
14	0	0	0	0	538	518	1	0	40	20	
15	0	0	0	0	528	518	1	1017	40	20	
0	0	0	0	0	513	513	2	1019	40	20	
1	0	0	0	0	521	511	3	1018	40	20	
2	0	0	0	0	539	510	3	1018	40	20	
3	0	0	0	0	530	512	3	1018	40	20	
4	0	0	0	0	517	512	2	1018	40	20	
