# OpenSignals Text File Format. Version 1
# {"0C:43:14:1C:2A:02": {"position": 0, "device": "bitalino_rev", "device name": "0C:43:14:1C:2A:02", "device connection": "BTH0C:43:14:1C:2A:02", "sampling rate": 1000, "resolution": [4, 1, 1, 1, 1, 10, 10, 10, 10, 6, 6], "firmware version": 1282, "comments": "", "keywords": "", "mode": 0, "sync interval": 2, "date": "2026-4-17", "time": "12:25:33.771", "channels": [1, 2, 3, 4, 5, 6], "sensor": ["RAW", "RAW", "RAW", "RAW", "RAW", "RAW"], "label": ["A1", "A2", "A3", "A4", "A5", "A6"], "column": ["nSeq", "I1", "I2", "O1", "O2", "A1", "A2", "A3", "A4", "A5", "A6"], "special": [{}, {}, {}, {}, {}, {}], "digital IO": [0, 0, 1, 1]}}
# EndOfHeader
0	0	0	0	0	508	505	0	0	40	26	
1	0	0	0	0	504	508	3	0	40	26	
2	0	0	0	0	505	510	0	0	40	26	
3	0	0	0	0	500	510	2	554	40	26	
4	0	0	0	0	504	512	3	1019	40	26	
5	0	0	0	0	507	510	3	1018	40	26	
6	0	0	0	0	511	511	2	1018	40	26	
7	0	0	0	0	515	510	1	1018	40	26	
8	0	0	0	0	510	509	3	1019	40	26	
9	0	0	0	0	513	508	0	1018	40	26	
10	0	0	0	0	515	508	2	1018	40	26	
11	0	0	0	0	517	509	1	1018	40	26	
12	0	0	0	0	519	508	0	1018	40	26	
13	0	0	0	0	523	504	2	75	40	25	
14	0	0	0	0	524	504	0	0	40	26	
15	0	0	0	0	523	505	2	0	40	26	
0	0	0	0	0	516	506	3	0	39	26	
1	0	0	0	0	508	504	3	0	40	26	
2	0	0	0	0	501	507	1	0	40	25	
3	0	0	0	0	500	507	2	0	40	26	
4	0	0	0	0	501	506	3	1018	40	26	
5	0	0	0	0	507	507	2	1018	40	26	
6	0	0	0	0	509	509	3	1018	40	26	
7	0	0	0	0	511	509	0	1018	40	25	
8	0	0	0	0	512	510	3	1019	40	26	
9	0	0	0	0	512	510	1	1018	40	26	
10	0	0	0	0	511	511	3	1018	40	26	
11	0	0	0	0	518	511	1	1018	40	25	
12	0	0	0	0	520	512	3	1019	40	26	
13	0	0	0	0	521	509	2	709	40	26	
14	0	0	0	0	525	507	0	0	40	26	
15	0	0	0	0	522	508	2	0	40	26	
0	0	0	0	0	518	507	2	0	40	26	
1	0	0	0	0	510	507	2	0	40	25	
2	0	0	0	0	507	509	1	0	40	26	
3	0	0	0	0	502	511	1	0	40	26	
4	0	0	0	0	501	511	3	0	40	26	
5	0	0	0	0	502	514	1	1018	40	25	
6	0	0	0	0	509	511	3	1018	40	25	
7	0	0	0	0	512	513	0	1018	40	26	
8	0	0	0	0	514	511	3	1019	40	26	
9	0	0	0	0	514	513	1	1018	40	26	
10	0	0	0	0	513	512	3	1018	40	26	
11	0	0	0	0	513	513	2	1018	40	25	
12	0	0	0	0	519	512	3	1019	40	26	
13	0	0	0	0	520	511	2	666	40	25	
14	0	0	0	0	523	510	1	0	40	26	
15	0	0	0	0	526	507	2	0	40	25	
0	0	0	0	0	525	508	2	0	40	26	
1	0	0	0	0	516	507	0	0	40	26	
2	0	0	0	0	509	509	3	0	40	26	
3	0	0	0	0	504	512	0	0	40	26	
4	0	0	0	0	503	511	1	0	40	25	
5	0	0	0	0	501	513	2	0	40	25	
6	0	0	0	0	504	515	1	1018	40	26	
7	0	0	0	0	506	514	3	1018	40	26	
8	0	0	0	0	511	512	2	1018	40	26	
9	0	0	0	0	512	513	2	1018	40	26	
10	0	0	0	0	511	515	1	1018	40	25	
11	0	0	0	0	511	515	0	1018	40	26	
12	0	0	0	0	514	513	2	1019	40	26	
13	0	0	0	0	518	512	0	1018	40	26	
14	0	0	0	0	521	509	2	0	40	26	
15	0	0	0	0	522	508	0	0	40	25	
0	0	0	0	0	524	506	3	0	40	26	
1	0	0	0	0	521	504	1	0	40	26	
2	0	0	0	0	513	506	1	0	40	26	
3	0	0	0	0	507	508	2	0	40	25	
4	0	0	0	0	503	509	3	0	40	26	
5	0	0	0	0	499	510	3	0	40	25	
6	0	0	0	0	501	511	2	0	40	26	
7	0	0	0	0	504	512	1	1018	40	26	
8	0	0	0	0	508	514	4	1019	40	26	
9	0	0	0	0	513	511	1	1018	40	26	
10	0	0	0	0	512	510	2	1018	40	26	
11	0	0	0	0	510	510	2	1018	40	26	
12	0	0	0	0	513	512	3	1019	40	26	
13	0	0	0	0	515	512	3	1018	40	25	
14	0	0	0	0	518	510	2	1018	40	25	
15	0	0	0	0	522	507	0	0	40	26	
0	0	0	0	0	524	507	3	0	40	26	
1	0	0	0	0	524	505	1	0	40	26	
2	0	0	0	0	520	507	2	0	40	26	
3	0	0	0	0	511	508	2	0	40	26	
4	0	0	0	0	506	510	2	0	40	26	
5	0	0	0	0	501	510	3	0	40	25	
6	0	0	0	0	502	511	2	0	40	26	
7	0	0	0	0	506	512	2	1018	40	25	
8	0	0	0	0	506	514	3	1019	40	26	
9	0	0	0	0	510	512	1	1018	40	26	
10	0	0	0	0	515	513	3	1018	40	26	
11	0	0	0	0	514	513	1	1018	40	26	
12	0	0	0	0	512	512	1	1018	40	26	
13	0	0	0	0	514	512	2	1018	40	25	
14	0	0	0	0	516	511	0	1018	40	26	
15	0	0	0	0	521	510	2	123	40	26	
0	0	0	0	0	523	507	1	0	40	26	
1	0	0	0	0	524	507	2	0	40	26	
2	0	0	0	0	525	508	1	0	40	26	
3	0	0	0	0	516	508	0	0	40	26	
4	0	0	0	0	508	508	3	0	40	26	
5	0	0	0	0	506	508	1	0	40	26	
6	0	0	0	0	502	510	3	0	40	26	
7	0	0	0	0	502	510	1	0	40	26	
8	0	0	0	0	502	512	4	759	40	26	
9	0	0	0	0	507	511	3	1018	40	26	
10	0	0	0	0	511	512	0	1018	40	26	
11	0	0	0	0	512	513	2	1018	40	26	
12	0	0	0	0	511	511	2	1019	40	26	
13	0	0	0	0	514	512	1	1018	40	25	
14	0	0	0	0	515	511	2	1018	40	26	
15	0	0	0	0	520	509	0	319	40	26	
0	0	0	0	0	522	508	1	0	40	26	
1	0	0	0	0	523	508	1	0	40	26	
2	0	0	0	0	526	508	2	0	40	26	
3	0	0	0	0	522	507	2	0	40	26	
4	0	0	0	0	513	508	3	0	40	26	
5	0	0	0	0	508	508	2	0	40	25	
6	0	0	0	0	504	508	1	0	40	26	
7	0	0	0	0	499	512	2	0	40	26	
8	0	0	0	0	502	514	3	128	40	26	
9	0	0	0	0	503	513	1	1018	40	26	
10	0	0	0	0	508	512	3	1018	40	26	
11	0	0	0	0	512	513	1	1018	40	26	
12	0	0	0	0	514	511	3	1019	40	26	
13	0	0	0	0	514	511	3	1018	40	25	
14	0	0	0	0	513	511	0	1018	40	26	
15	0	0	0	0	517	512	2	1018	40	25	
0	0	0	0	0	519	512	2	1019	40	26	
1	0	0	0	0	521	509	2	0	40	26	
2	0	0	0	0	525	509	1	0	40	26	
3	0	0	0	0	523	508	0	0	40	26	
4	0	0	0	0	518	507	3	0	40	26	
5	0	0	0	0	511	508	0	0	40	26	
6	0	0	0	0	507	510	2	0	40	26	
7	0	0	0	0	504	513	1	0	40	26	
8	0	0	0	0	502	513	3	0	40	26	
9	0	0	0	0	502	513	3	0	40	26	
10	0	0	0	0	505	514	1	1018	40	26	
11	0	0	0	0	511	512	2	1018	40	26	
12	0	0	0	0	515	511	2	1019	40	26	
13	0	0	0	0	511	510	0	1018	40	26	
14	0	0	0	0	512	511	3	1018	40	25	
15	0	0	0	0	513	512	0	1018	40	26	
0	0	0	0	0	517	510	3	443	40	26	
1	0	0	0	0	520	507	2	0	40	26	
2	0	0	0	0	523	506	0	0	40	26	
3	0	0	0	0	524	504	1	0	40	25	
4	0	0	0	0	522	504	1	0	40	26	
5	0	0	0	0	516	507	1	0	40	26	
6	0	0	0	0	509	507	2	0	40	26	
7	0	0	0	0	504	509	0	0	40	26	
8	0	0	0	0	503	511	4	0	40	26	
9	0	0	0	0	500	511	2	0	40	25	
10	0	0	0	0	504	513	3	1018	40	26	
11	0	0	0	0	509	513	3	1018	40	26	
12	0	0	0	0	513	511	2	1018	40	26	
13	0	0	0	0	515	510	2	1018	40	25	
14	0	0	0	0	511	510	1	1019	40	25	
15	0	0	0	0	513	511	0	1018	40	26	
0	0	0	0	0	515	509	2	1018	40	26	
1	0	0	0	0	520	509	1	1018	40	26	
2	0	0	0	0	522	509	2	248	40	26	
3	0	0	0	0	522	508	1	0	40	25	
4	0	0	0	0	524	510	3	0	40	26	
5	0	0	0	0	521	507	2	0	40	25	
6	0	0	0	0	514	507	1	0	40	26	
7	0	0	0	0	508	509	2	0	40	26	
8	0	0	0	0	503	509	3	0	40	26	
9	0	0	0	0	502	512	0	0	40	26	
10	0	0	0	0	503	514	3	0	40	26	
11	0	0	0	0	504	514	1	1018	40	26	
12	0	0	0	0	507	515	3	1018	40	26	
13	0	0	0	0	511	513	2	1019	40	25	
14	0	0	0	0	513	515	0	1018	40	26	
15	0	0	0	0	513	517	2	1018	40	26	
0	0	0	0	0	516	518	3	1019	39	26	
1	0	0	0	0	518	515	2	1018	40	26	
2	0	0	0	0	519	514	0	449	40	26	
3	0	0	0	0	522	512	2	0	40	26	
4	0	0	0	0	524	510	2	0	40	26	
5	0	0	0	0	523	508	0	0	40	26	
6	0	0	0	0	520	507	2	0	40	26	
7	0	0	0	0	510	509	0	0	40	26	
8	0	0	0	0	504	510	3	0	40	26	
9	0	0	0	0	501	510	3	0	40	26	
10	0	0	0	0	503	511	1	0	40	26	
11	0	0	0	0	504	511	2	672	40	25	
12	0	0	0	0	504	512	3	1019	40	26	
13	0	0	0	0	511	510	1	1018	40	26	
14	0	0	0	0	511	509	3	1018	40	26	
15	0	0	0	0	514	510	0	1018	40	26	
0	0	0	0	0	511	508	1	1019	40	26	
1	0	0	0	0	513	508	2	1019	40	25	
2	0	0	0	0	518	510	2	1018	40	26	
3	0	0	0	0	521	509	2	0	40	26	
4	0	0	0	0	523	507	3	0	40	26	
5	0	0	0	0	527	506	2	0	40	25	
6	0	0	0	0	526	504	1	0	40	25	
7	0	0	0	0	519	507	2	0	40	26	
8	0	0	0	0	508	506	3	0	40	26	
9	0	0	0	0	502	507	1	0	40	26	
10	0	0	0	0	502	509	3	0	40	26	
11	0	0	0	0	502	510	3	0	40	25	
12	0	0	0	0	504	510	2	1019	40	26	
13	0	0	0	0	506	509	3	1018	40	25	
14	0	0	0	0	511	509	2	1018	40	26	
15	0	0	0	0	516	509	0	1018	40	25	
0	0	0	0	0	511	509	1	1018	40	26	
1	0	0	0	0	512	508	1	1018	40	26	
2	0	0	0	0	515	508	1	1018	40	26	
3	0	0	0	0	518	511	3	1018	40	26	
4	0	0	0	0	522	506	1	503	40	26	
5	0	0	0	0	523	506	0	0	40	25	
6	0	0	0	0	525	506	2	0	40	26	
7	0	0	0	0	521	505	0	0	40	26	
8	0	0	0	0	516	505	3	0	40	26	
9	0	0	0	0	508	505	3	0	40	26	
10	0	0	0	0	504	507	0	0	40	25	
11	0	0	0	0	501	509	2	0	40	26	
12	0	0	0	0	502	509	3	612	40	26	
13	0	0	0	0	503	509	1	1018	40	26	
14	0	0	0	0	507	510	3	1018	40	26	
15	0	0	0	0	510	509	1	1018	40	25	
0	0	0	0	0	514	512	3	1019	40	26	
1	0	0	0	0	512	511	2	1018	40	26	
2	0	0	0	0	512	512	1	1018	40	26	
3	0	0	0	0	517	511	2	1018	40	25	
4	0	0	0	0	516	510	2	324	40	26	
5	0	0	0	0	523	507	0	0	40	26	
6	0	0	0	0	523	505	2	0	40	26	
7	0	0	0	0	523	505	0	0	40	26	
8	0	0	0	0	520	504	3	0	40	26	
9	0	0	0	0	510	504	3	0	40	25	
10	0	0	0	0	506	507	0	0	40	26	
11	0	0	0	0	501	510	2	0	40	26	
12	0	0	0	0	501	509	3	0	40	26	
13	0	0	0	0	502	512	1	1018	40	25	
14	0	0	0	0	504	512	3	1019	40	25	
15	0	0	0	0	509	513	1	1018	40	26	
0	0	0	0	0	518	512	3	1019	40	26	
1	0	0	0	0	512	511	2	1018	40	26	
2	0	0	0	0	513	511	1	1018	40	26	
3	0	0	0	0	516	511	0	1018	40	26	
4	0	0	0	0	518	508	1	1018	40	26	
5	0	0	0	0	521	508	1	331	40	25	
6	0	0	0	0	525	508	2	0	40	26	
7	0	0	0	0	527	510	2	0	40	26	
8	0	0	0	0	522	506	3	0	40	26	
9	0	0	0	0	516	508	2	0	40	26	
10	0	0	0	0	511	508	2	0	40	26	
11	0	0	0	0	504	510	0	0	40	26	
12	0	0	0	0	500	512	4	0	40	26	
13	0	0	0	0	502	513	2	0	40	25	
14	0	0	0	0	504	514	2	1018	40	26	
15	0	0	0	0	506	514	3	1018	40	26	
0	0	0	0	0	511	512	2	1019	40	26	
1	0	0	0	0	513	510	2	1018	40	26	
2	0	0	0	0	510	510	1	1018	40	26	
3	0	0	0	0	512	512	2	1018	40	26	
4	0	0	0	0	514	510	3	1018	40	26	
5	0	0	0	0	516	510	1	1018	40	26	
6	0	0	0	0	521	509	2	0	40	25	
7	0	0	0	0	523	511	0	0	40	26	
8	0	0	0	0	524	509	0	0	40	26	
9	0	0	0	0	523	508	1	0	40	26	
10	0	0	0	0	514	510	2	0	40	26	
11	0	0	0	0	505	510	1	0	40	25	
12	0	0	0	0	501	514	3	0	40	26	
13	0	0	0	0	502	514	2	0	40	26	
14	0	0	0	0	504	515	1	0	40	26	
15	0	0	0	0	505	515	3	1018	40	26	
0	0	0	0	0	509	512	3	1018	40	26	
1	0	0	0	0	511	511	1	1019	40	25	
2	0	0	0	0	513	510	2	1018	40	26	
3	0	0	0	0	511	511	0	1018	40	26	
4	0	0	0	0	512	510	2	1018	40	26	
5	0	0	0	0	516	509	2	1018	40	25	
6	0	0	0	0	520	508	1	497	40	25	
7	0	0	0	0	524	507	1	0	40	26	
8	0	0	0	0	526	508	2	0	40	26	
9	0	0	0	0	527	507	2	0	40	26	
10	0	0	0	0	525	507	1	0	40	26	
11	0	0	0	0	514	509	0	0	40	26	
12	0	0	0	0	511	511	3	0	40	26	
13	0	0	0	0	504	512	1	0	40	25	
14	0	0	0	0	503	512	3	0	40	26	
15	0	0	0	0	501	513	2	998	40	26	
0	0	0	0	0	501	513	4	1019	40	26	
1	0	0	0	0	506	511	3	1018	40	26	
2	0	0	0	0	508	511	0	1018	40	26	
3	0	0	0	0	510	511	2	1018	40	26	
4	0	0	0	0	514	511	1	1019	40	26	
5	0	0	0	0	516	511	1	1019	40	25	
6	0	0	0	0	518	512	2	1018	40	26	
7	0	0	0	0	518	513	0	575	40	26	
8	0	0	0	0	528	510	3	0	39	26	
9	0	0	0	0	536	508	1	0	40	26	
10	0	0	0	0	549	509	2	0	40	25	
11	0	0	0	0	550	511	1	0	40	26	
12	0	0	0	0	536	513	2	0	40	26	
13	0	0	0	0	509	514	2	0	40	26	
14	0	0	0	0	488	514	3	0	40	26	
15	0	0	0	0	470	515	0	0	40	26	
0	0	0	0	0	460	514	2	1017	40	26	
1	0	0	0	0	468	515	3	1018	40	26	
2	0	0	0	0	476	515	1	1018	40	26	
3	0	0	0	0	490	513	2	1018	40	26	
4	0	0	0	0	504	511	3	1018	40	26	
5	0	0	0	0	522	510	0	1018	40	26	
6	0	0	0	0	528	509	3	1018	40	26	
7	0	0	0	0	534	509	0	1017	40	26	
8	0	0	0	0	550	507	2	0	40	26	
9	0	0	0	0	536	505	2	0	40	25	
10	0	0	0	0	533	506	0	0	40	26	
11	0	0	0	0	524	507	2	0	40	26	
12	0	0	0	0	512	508	3	0	40	26	
13	0	0	0	0	510	509	1	0	40	25	
14	0	0	0	0	507	509	3	0	40	25	
15	0	0	0	0	516	512	2	0	40	26	
0	0	0	0	0	523	513	2	0	40	26	
1	0	0	0	0	522	513	3	1018	40	26	
2	0	0	0	0	520	513	2	1018	40	26	
3	0	0	0	0	516	510	1	1018	40	25	
4	0	0	0	0	509	511	3	1019	40	26	
5	0	0	0	0	501	510	1	1018	40	25	
6	0	0	0	0	496	510	1	1018	40	26	
7	0	0	0	0	503	512	3	1018	40	25	
8	0	0	0	0	503	512	2	473	40	26	
9	0	0	0	0	503	509	0	0	40	26	
10	0	0	0	0	500	508	2	0	40	26	
11	0	0	0	0	503	509	0	0	40	26	
12	0	0	0	0	491	506	2	0	40	26	
13	0	0	0	0	485	507	2	0	40	25	
14	0	0	0	0	495	510	0	0	40	26	
15	0	0	0	0	499	512	2	0	40	26	
0	0	0	0	0	506	515	3	0	39	26	
1	0	0	0	0	512	515	1	793	40	26	
2	0	0	0	0	521	515	3	1018	40	26	
3	0	0	0	0	525	515	1	1018	40	26	
4	0	0	0	0	527	511	2	1018	40	26	
5	0	0	0	0	526	511	3	1018	40	26	
6	0	0	0	0	524	511	0	1018	40	26	
7	0	0	0	0	521	509	2	1018	40	26	
8	0	0	0	0	524	510	2	1019	40	26	
9	0	0	0	0	525	509	0	174	40	26	
10	0	0	0	0	527	508	2	0	40	26	
11	0	0	0	0	527	507	0	0	40	26	
12	0	0	0	0	527	507	3	0	40	26	
13	0	0	0	0	518	507	1	0	40	26	
14	0	0	0	0	512	509	0	0	40	26	
15	0	0	0	0	504	513	2	0	40	26	
0	0	0	0	0	506	511	3	0	40	26	
1	0	0	0	0	503	511	3	0	40	26	
2	0	0	0	0	504	510	2	1018	40	26	
3	0	0	0	0	509	512	3	1018	40	26	
4	0	0	0	0	511	511	3	1018	40	26	
5	0	0	0	0	513	509	1	1018	40	25	
6	0	0	0	0	513	510	2	1018	40	26	
7	0	0	0	0	512	510	1	1018	40	26	
8	0	0	0	0	518	510	3	1019	39	26	
9	0	0	0	0	519	508	3	1018	40	26	
10	0	0	0	0	520	508	0	233	40	25	
11	0	0	0	0	524	508	2	0	40	26	
12	0	0	0	0	526	507	1	0	40	26	
13	0	0	0	0	522	504	2	0	40	25	
14	0	0	0	0	512	507	1	0	40	26	
15	0	0	0	0	507	509	0	0	40	26	
0	0	0	0	0	500	511	3	0	40	26	
1	0	0	0	0	500	512	0	0	40	26	
2	0	0	0	0	502	512	3	0	40	26	
3	0	0	0	0	505	513	2	1018	40	26	
4	0	0	0	0	508	511	3	1018	40	26	
5	0	0	0	0	512	511	3	1019	40	25	
6	0	0	0	0	513	510	0	1018	40	26	
7	0	0	0	0	510	510	2	1018	40	26	
8	0	0	0	0	512	510	2	1018	40	26	
9	0	0	0	0	513	508	0	1018	40	26	
10	0	0	0	0	518	508	2	25	40	25	
11	0	0	0	0	521	508	0	0	40	26	
12	0	0	0	0	523	505	1	0	40	26	
13	0	0	0	0	524	505	1	0	40	26	
14	0	0	0	0	519	507	1	0	40	26	
15	0	0	0	0	510	508	2	0	40	25	
0	0	0	0	0	505	507	1	0	40	26	
1	0	0	0	0	500	510	3	0	40	26	
2	0	0	0	0	500	511	1	0	40	26	
3	0	0	0	0	503	510	3	1018	40	25	
4	0	0	0	0	506	511	3	1019	40	26	
5	0	0	0	0	510	511	1	1018	40	26	
6	0	0	0	0	514	511	3	1018	40	26	
7	0	0	0	0	511	510	1	1018	40	26	
8	0	0	0	0	511	508	1	1018	40	25	
9	0	0	0	0	514	508	3	1019	40	26	
10	0	0	0	0	515	509	0	1018	40	26	
11	0	0	0	0	519	509	2	1018	40	26	
12	0	0	0	0	525	508	1	0	40	26	
13	0	0	0	0	525	506	0	0	40	25	
14	0	0	0	0	524	504	2	0	40	26	
15	0	0	0	0	517	505	0	0	40	26	
0	0	0	0	0	510	507	1	0	40	26	
1	0	0	0	0	504	509	3	0	40	26	
2	0	0	0	0	503	512	0	0	40	26	
3	0	0	0	0	500	512	2	0	40	25	
4	0	0	0	0	503	513	2	1019	40	26	
5	0	0	0	0	508	511	1	1018	40	26	
6	0	0	0	0	511	512	3	1018	40	26	
7	0	0	0	0	514	512	0	1018	40	26	
8	0	0	0	0	512	509	1	1018	40	26	
9	0	0	0	0	511	509	2	1018	40	26	
10	0	0	0	0	515	509	0	1018	40	26	
11	0	0	0	0	517	509	2	1017	40	26	
12	0	0	0	0	522	508	1	62	40	26	
13	0	0	0	0	521	507	2	0	40	25	
14	0	0	0	0	525	506	1	0	40	26	
15	0	0	0	0	523	504	0	0	40	26	
0	0	0	0	0	512	506	3	0	39	26	
1	0	0	0	0	509	508	1	0	40	26	
2	0	0	0	0	502	511	3	0	40	25	
3	0	0	0	0	503	514	2	0	40	26	
4	0	0	0	0	503	516	4	1019	40	26	
5	0	0	0	0	504	514	3	1018	40	26	
6	0	0	0	0	510	513	2	1018	40	26	
7	0	0	0	0	510	511	3	1018	40	25	
8	0	0	0	0	515	513	2	1019	40	26	
9	0	0	0	0	512	515	0	1018	40	26	
10	0	0	0	0	514	516	2	1018	40	26	
11	0	0	0	0	517	515	1	1018	40	25	
12	0	0	0	0	517	512	3	1019	40	26	
13	0	0	0	0	520	510	2	1018	40	26	
14	0	0	0	0	523	507	0	352	40	26	
15	0	0	0	0	524	507	2	0	40	26	
0	0	0	0	0	519	506	2	0	40	25	
1	0	0	0	0	512	508	1	0	40	25	
2	0	0	0	0	506	509	2	0	40	26	
3	0	0	0	0	502	511	0	0	40	26	
4	0	0	0	0	501	512	3	0	40	26	
5	0	0	0	0	505	513	2	1018	40	25	
6	0	0	0	0	511	513	3	1018	40	25	
7	0	0	0	0	514	512	3	1018	40	26	
8	0	0	0	0	516	512	3	1019	40	26	
9	0	0	0	0	510	510	2	1018	40	26	
10	0	0	0	0	510	511	1	1018	40	26	
11	0	0	0	0	511	511	2	1018	40	26	
12	0	0	0	0	512	511	1	1019	40	26	
13	0	0	0	0	518	510	0	1018	40	25	
14	0	0	0	0	523	512	2	1018	40	26	
15	0	0	0	0	525	511	0	0	40	25	
0	0	0	0	0	527	512	3	0	40	26	
1	0	0	0	0	517	511	2	0	40	26	
2	0	0	0	0	512	511	0	0	40	26	
3	0	0	0	0	514	512	2	0	40	26	
4	0	0	0	0	521	513	3	0	40	26	
5	0	0	0	0	512	514	1	0	40	25	
6	0	0	0	0	507	515	3	1018	40	26	
7	0	0	0	0	501	515	2	1018	40	26	
8	0	0	0	0	493	512	3	1018	40	26	
9	0	0	0	0	489	510	3	1018	40	26	
10	0	0	0	0	490	511	2	1018	40	26	
11	0	0	0	0	491	512	0	1018	40	26	
12	0	0	0	0	498	511	2	1019	40	26	
13	0	0	0	0	519	511	1	1018	40	26	
14	0	0	0	0	537	510	1	1018	40	26	
15	0	0	0	0	541	507	2	444	40	26	
0	0	0	0	0	539	507	2	0	40	26	
1	0	0	0	0	537	505	0	0	40	26	
2	0	0	0	0	536	508	2	0	40	26	
3	0	0	0	0	530	510	0	0	40	25	
4	0	0	0	0	511	511	3	0	40	26	
5	0	0	0	0	500	511	3	0	40	25	
6	0	0	0	0	493	511	1	0	40	26	
7	0	0	0	0	493	513	3	1018	40	26	
8	0	0	0	0	494	511	3	1018	40	26	
9	0	0	0	0	496	511	1	1018	40	26	
10	0	0	0	0	500	512	3	1018	40	26	
11	0	0	0	0	510	512	0	1018	40	26	
12	0	0	0	0	512	513	3	1019	40	26	
13	0	0	0	0	515	510	1	1018	40	25	
14	0	0	0	0	519	509	1	1018	40	26	
15	0	0	0	0	526	506	1	201	40	26	
0	0	0	0	0	527	505	3	0	40	26	
1	0	0	0	0	525	504	2	0	40	26	
2	0	0	0	0	518	505	1	0	40	26	
3	0	0	0	0	513	508	0	0	40	26	
4	0	0	0	0	506	511	3	0	40	26	
5	0	0	0	0	501	511	1	0	40	25	
6	0	0	0	0	500	513	3	0	40	26	
7	0	0	0	0	505	513	1	0	40	25	
8	0	0	0	0	506	514	4	1019	40	26	
9	0	0	0	0	514	513	2	1018	40	26	
10	0	0	0	0	517	513	1	1018	40	26	
11	0	0	0	0	514	513	2	1018	40	26	
12	0	0	0	0	514	513	3	1018	40	26	
13	0	0	0	0	513	512	1	1018	40	26	
14	0	0	0	0	517	512	2	0	40	26	
15	0	0	0	0	522	510	0	0	40	26	
0	0	0	0	0	520	509	1	0	40	26	
1	0	0	0	0	524	507	1	0	40	26	
2	0	0	0	0	520	507	0	0	40	25	
3	0	0	0	0	516	508	1	0	40	26	
4	0	0	0	0	504	510	3	0	40	26	
5	0	0	0	0	503	511	2	0	40	26	
6	0	0	0	0	505	512	1	0	40	26	
7	0	0	0	0	501	513	1	0	40	26	
8	0	0	0	0	505	516	3	577	40	26	
9	0	0	0	0	509	515	1	1018	40	26	
10	0	0	0	0	511	515	3	1018	40	26	
11	0	0	0	0	516	515	1	1018	40	25	
12	0	0	0	0	511	515	3	1019	40	26	
13	0	0	0	0	512	513	2	1018	40	25	
14	0	0	0	0	516	512	0	1018	40	26	
15	0	0	0	0	516	510	2	548	40	26	
0	0	0	0	0	522	508	1	0	40	26	
1	0	0	0	0	524	507	0	0	40	25	
2	0	0	0	0	525	507	2	0	40	26	
3	0	0	0	0	524	508	0	0	40	26	
4	0	0	0	0	515	510	3	0	40	26	
5	0	0	0	0	507	510	2	0	40	25	
6	0	0	0	0	502	511	1	0	40	25	
7	0	0	0	0	501	512	2	0	40	26	
8	0	0	0	0	502	514	3	0	40	26	
9	0	0	0	0	504	512	1	1018	40	26	
10	0	0	0	0	509	513	3	1018	40	26	
11	0	0	0	0	510	514	0	1018	40	25	
12	0	0	0	0	512	513	3	1019	40	26	
13	0	0	0	0	512	510	3	1018	40	25	
14	0	0	0	0	513	511	0	1018	40	26	
15	0	0	0	0	516	510	2	1018	40	25	
0	0	0	0	0	517	508	2	75	40	26	
1	0	0	0	0	521	507	0	0	40	26	
2	0	0	0	0	525	507	2	0	40	26	
3	0	0	0	0	523	506	0	0	40	26	
4	0	0	0	0	519	504	2	0	40	26	
5	0	0	0	0	509	507	3	0	40	25	
6	0	0	0	0	507	508	0	0	40	26	
7	0	0	0	0	503	511	2	0	40	26	
8	0	0	0	0	500	511	3	0	40	26	
9	0	0	0	0	504	511	0	0	40	26	
10	0	0	0	0	505	511	3	1018	40	25	
11	0	0	0	0	509	510	1	1018	40	26	
12	0	0	0	0	515	510	3	1019	40	26	
13	0	0	0	0	513	510	2	1018	40	26	
14	0	0	0	0	514	510	1	1018	40	26	
15	0	0	0	0	514	507	2	1018	40	25	
0	0	0	0	0	517	507	1	43	40	26	
1	0	0	0	0	519	507	0	0	40	26	
2	0	0	0	0	521	506	2	0	40	26	
3	0	0	0	0	527	506	0	0	40	25	
4	0	0	0	0	523	505	3	0	40	26	
5	0	0	0	0	517	505	1	0	40	26	
6	0	0	0	0	509	507	1	0	40	26	
7	0	0	0	0	501	508	2	0	40	26	
8	0	0	0	0	501	509	2	0	39	26	
9	0	0	0	0	499	508	3	0	40	25	
10	0	0	0	0	504	511	2	0	40	26	
11	0	0	0	0	508	511	0	1018	40	25	
12	0	0	0	0	512	512	4	1019	40	26	
13	0	0	0	0	515	512	1	1018	40	25	
14	0	0	0	0	511	512	3	1018	40	25	
15	0	0	0	0	513	512	2	1018	40	26	
0	0	0	0	0	515	512	1	1018	40	25	
1	0	0	0	0	518	511	2	315	40	26	
2	0	0	0	0	521	510	1	0	40	26	
3	0	0	0	0	524	507	2	0	40	25	
4	0	0	0	0	526	506	0	0	40	26	
5	0	0	0	0	523	505	0	0	40	25	
6	0	0	0	0	516	508	2	0	40	26	
7	0	0	0	0	507	510	1	0	40	26	
8	0	0	0	0	500	510	3	0	40	26	
9	0	0	0	0	503	508	2	0	40	26	
10	0	0	0	0	503	511	1	0	40	26	
11	0	0	0	0	507	513	3	1018	40	26	
12	0	0	0	0	509	510	3	1019	40	26	
13	0	0	0	0	512	507	3	1019	40	25	
14	0	0	0	0	514	508	1	1018	40	26	
15	0	0	0	0	511	509	0	1018	40	26	
0	0	0	0	0	509	508	3	1017	40	26	
1	0	0	0	0	512	509	1	1018	40	26	
2	0	0	0	0	515	507	2	620	40	25	
3	0	0	0	0	521	508	0	0	40	26	
4	0	0	0	0	525	506	1	0	40	26	
5	0	0	0	0	526	507	2	0	40	26	
6	0	0	0	0	521	507	0	0	40	26	
7	0	0	0	0	510	507	2	0	40	26	
8	0	0	0	0	506	508	2	0	40	26	
9	0	0	0	0	504	510	0	0	40	26	
10	0	0	0	0	501	510	3	0	40	26	
11	0	0	0	0	506	510	1	295	40	25	
12	0	0	0	0	504	509	4	1019	40	26	
13	0	0	0	0	511	508	1	1018	40	26	
14	0	0	0	0	513	508	3	1018	40	26	
15	0	0	0	0	512	509	2	1018	40	26	
0	0	0	0	0	513	507	1	1019	40	26	
1	0	0	0	0	516	506	2	1018	40	26	
2	0	0	0	0	519	508	1	564	40	26	
3	0	0	0	0	522	508	0	0	40	26	
4	0	0	0	0	527	509	3	0	40	26	
5	0	0	0	0	528	508	1	0	40	25	
6	0	0	0	0	524	509	2	0	40	26	
7	0	0	0	0	519	509	2	0	40	26	
8	0	0	0	0	508	509	3	0	40	26	
9	0	0	0	0	494	512	0	0	40	26	
10	0	0	0	0	489	513	3	0	40	26	
11	0	0	0	0	488	515	0	0	40	26	
12	0	0	0	0	494	515	4	1019	40	26	
13	0	0	0	0	506	513	3	1018	40	25	
14	0	0	0	0	514	513	1	1018	40	26	
15	0	0	0	0	522	511	2	1018	40	25	
0	0	0	0	0	524	513	1	1018	40	26	
1	0	0	0	0	526	514	0	1018	40	26	
2	0	0	0	0	530	514	2	1018	40	26	
3	0	0	0	0	528	512	1	1017	40	26	
4	0	0	0	0	527	509	3	0	40	26	
5	0	0	0	0	523	508	2	0	40	26	
6	0	0	0	0	521	507	1	0	40	26	
7	0	0	0	0	520	507	2	0	40	26	
8	0	0	0	0	506	507	3	0	40	26	
9	0	0	0	0	502	509	0	0	40	25	
10	0	0	0	0	491	511	3	0	40	26	
11	0	0	0	0	487	512	1	0	40	26	
12	0	0	0	0	493	511	2	0	40	26	
13	0	0	0	0	498	511	3	1018	40	26	
14	0	0	0	0	507	511	1	1018	40	25	
15	0	0	0	0	515	512	2	1018	40	26	
0	0	0	0	0	518	511	1	1019	40	26	
1	0	0	0	0	516	511	0	1018	40	26	
2	0	0	0	0	523	513	2	1018	40	26	
3	0	0	0	0	529	512	1	1018	40	26	
4	0	0	0	0	526	510	3	399	40	26	
5	0	0	0	0	534	508	2	0	40	25	
6	0	0	0	0	537	509	0	0	40	26	
7	0	0	0	0	537	512	2	0	40	26	
8	0	0	0	0	523	510	1	0	40	26	
9	0	0	0	0	499	511	2	0	40	25	
10	0	0	0	0	482	514	2	0	40	26	
11	0	0	0	0	469	516	0	0	40	26	
12	0	0	0	0	460	515	2	0	40	26	
13	0	0	0	0	470	514	2	560	40	25	
14	0	0	0	0	482	514	3	1018	40	25	
15	0	0	0	0	509	514	2	1018	40	26	
0	0	0	0	0	532	514	3	1019	40	26	
1	0	0	0	0	535	511	3	1018	40	26	
2	0	0	0	0	541	511	1	1018	40	26	
3	0	0	0	0	550	511	2	1018	40	25	
4	0	0	0	0	556	511	1	1019	40	26	
5	0	0	0	0	540	511	0	8	40	25	
6	0	0	0	0	526	509	2	0	40	26	
7	0	0	0	0	518	509	0	0	40	25	
8	0	0	0	0	509	508	1	0	40	26	
9	0	0	0	0	496	511	1	0	40	26	
10	0	0	0	0	487	512	2	0	40	26	
11	0	0	0	0	491	512	2	0	40	26	
12	0	0	0	0	496	514	3	0	40	26	
13	0	0	0	0	499	512	3	0	40	25	
14	0	0	0	0	505	513	1	1002	40	26	
15	0	0	0	0	509	514	3	1018	40	26	
0	0	0	0	0	516	514	3	1019	40	26	
1	0	0	0	0	520	511	0	1018	40	26	
2	0	0	0	0	516	510	3	1019	40	25	
3	0	0	0	0	514	513	0	1018	40	26	
4	0	0	0	0	517	512	1	1018	40	25	
5	0	0	0	0	519	510	1	1018	40	26	
6	0	0	0	0	523	509	2	0	40	26	
7	0	0	0	0	524	507	2	0	40	25	
8	0	0	0	0	522	504	2	0	40	26	
9	0	0	0	0	519	504	2	0	40	26	
10	0	0	0	0	508	506	1	0	40	26	
11	0	0	0	0	503	508	2	0	40	25	
12	0	0	0	0	496	508	1	0	40	26	
13	0	0	0	0	499	510	0	0	40	25	
14	0	0	0	0	503	511	3	0	40	26	
15	0	0	0	0	505	513	1	1018	40	26	
0	0	0	0	0	510	511	3	1018	40	25	
1	0	0	0	0	516	511	3	1019	40	25	
2	0	0	0	0	520	509	0	1018	40	26	
3	0	0	0	0	515	511	2	1018	40	25	
4	0	0	0	0	515	513	2	1019	40	26	
5	0	0	0	0	524	512	1	1018	40	25	
6	0	0	0	0	525	512	3	1018	40	25	
7	0	0	0	0	529	510	0	0	40	26	
8	0	0	0	0	526	507	1	0	40	26	
9	0	0	0	0	523	506	2	0	40	26	
10	0	0	0	0	517	507	0	0	40	26	
11	0	0	0	0	509	508	2	0	40	25	
12	0	0	0	0	502	509	1	0	40	26	
13	0	0	0	0	495	511	3	0	40	25	
14	0	0	0	0	489	512	2	0	40	26	
15	0	0	0	0	494	513	1	915	40	25	
0	0	0	0	0	499	513	4	1019	40	26	
1	0	0	0	0	507	510	1	1018	40	26	
2	0	0	0	0	515	511	3	1018	40	26	
3	0	0	0	0	511	512	2	1018	40	26	
4	0	0	0	0	512	510	1	1018	40	25	
5	0	0	0	0	516	510	3	1018	40	25	
6	0	0	0	0	519	510	0	842	40	26	
7	0	0	0	0	526	510	2	0	40	26	
8	0	0	0	0	526	507	2	0	40	26	
9	0	0	0	0	527	506	0	0	40	26	
10	0	0	0	0	526	508	2	0	40	26	
11	0	0	0	0	516	510	0	0	40	25	
12	0	0	0	0	509	510	3	0	40	26	
13	0	0	0	0	504	511	3	0	40	26	
14	0	0	0	0	504	510	0	0	40	25	
15	0	0	0	0	502	513	2	0	40	26	
0	0	0	0	0	504	513	3	1018	40	26	
1	0	0	0	0	508	511	3	1018	40	26	
2	0	0	0	0	514	512	2	1018	40	26	
3	0	0	0	0	515	511	0	1018	40	25	
4	0	0	0	0	511	509	1	1018	40	26	
5	0	0	0	0	513	510	1	1018	40	25	
6	0	0	0	0	518	510	2	1018	40	26	
7	0	0	0	0	519	510	1	1017	40	26	
8	0	0	0	0	520	510	3	105	40	26	
9	0	0	0	0	521	507	2	0	40	26	
10	0	0	0	0	520	506	0	0	40	26	
11	0	0	0	0	521	507	2	0	40	26	
12	0	0	0	0	510	508	1	0	40	26	
13	0	0	0	0	505	510	1	0	40	25	
14	0	0	0	0	503	511	3	0	40	26	
15	0	0	0	0	501	513	0	0	40	26	
0	0	0	0	0	502	510	3	0	40	26	
1	0	0	0	0	505	511	3	1018	40	26	
2	0	0	0	0	511	510	1	1018	40	25	
3	0	0	0	0	513	510	2	1018	40	26	
4	0	0	0	0	514	509	3	1019	40	26	
5	0	0	0	0	511	510	3	1018	40	25	
6	0	0	0	0	513	509	1	1018	40	25	
7	0	0	0	0	515	509	0	1018	40	25	
8	0	0	0	0	518	508	2	584	40	26	
9	0	0	0	0	523	507	0	0	40	26	
10	0	0	0	0	525	506	2	0	40	26	
11	0	0	0	0	527	508	2	0	40	26	
12	0	0	0	0	520	508	2	0	40	26	
13	0	0	0	0	511	508	2	0	40	25	
14	0	0	0	0	507	511	1	0	40	26	
15	0	0	0	0	503	513	0	0	40	26	
0	0	0	0	0	498	513	3	0	40	26	
1	0	0	0	0	504	514	2	615	40	26	
2	0	0	0	0	506	513	2	1019	40	25	
3	0	0	0	0	511	515	2	1018	40	26	
4	0	0	0	0	513	513	3	1019	40	26	
5	0	0	0	0	513	511	1	1018	40	26	
6	0	0	0	0	510	510	3	1018	40	26	
7	0	0	0	0	512	509	0	1018	40	26	
8	0	0	0	0	516	508	3	1018	40	26	
9	0	0	0	0	516	507	2	0	40	26	
10	0	0	0	0	518	508	0	0	40	26	
11	0	0	0	0	523	507	2	0	40	26	
12	0	0	0	0	523	507	2	0	40	26	
13	0	0	0	0	515	505	0	0	40	25	
14	0	0	0	0	508	507	2	0	40	26	
15	0	0	0	0	505	508	0	0	40	26	
0	0	0	0	0	501	509	3	0	40	26	
1	0	0	0	0	499	510	3	0	40	26	
2	0	0	0	0	502	512	0	1018	40	26	
3	0	0	0	0	507	512	2	1018	40	26	
4	0	0	0	0	511	510	3	1019	40	26	
5	0	0	0	0	515	510	0	1018	40	25	
6	0	0	0	0	511	510	3	1018	40	25	
7	0	0	0	0	516	510	0	1018	40	26	
8	0	0	0	0	516	509	2	1019	40	26	
9	0	0	0	0	518	506	2	687	40	26	
10	0	0	0	0	524	507	0	0	40	26	
11	0	0	0	0	523	506	2	0	40	25	
12	0	0	0	0	525	506	1	0	40	26	
13	0	0	0	0	524	505	2	0	40	25	
14	0	0	0	0	513	507	1	0	40	26	
15	0	0	0	0	507	509	2	0	40	25	
0	0	0	0	0	503	511	1	0	40	26	
1	0	0	0	0	502	512	0	0	40	26	
2	0	0	0	0	503	512	3	486	40	26	
3	0	0	0	0	506	512	1	1018	40	26	
4	0	0	0	0	509	511	3	1019	40	26	
5	0	0	0	0	514	511	2	1018	40	25	
6	0	0	0	0	511	510	1	1018	40	26	
7	0	0	0	0	511	512	2	1018	40	26	
8	0	0	0	0	510	509	1	1018	40	26	
9	0	0	0	0	513	508	2	1018	40	26	
10	0	0	0	0	516	508	1	472	40	26	
11	0	0	0	0	521	506	2	0	40	26	
12	0	0	0	0	524	505	1	0	40	26	
13	0	0	0	0	525	504	0	0	40	26	
14	0	0	0	0	523	505	2	0	40	26	
15	0	0	0	0	515	506	0	0	40	26	
0	0	0	0	0	512	508	3	0	39	26	
1	0	0	0	0	505	509	3	0	40	26	
2	0	0	0	0	504	510	1	0	40	26	
3	0	0	0	0	502	511	3	734	40	26	
4	0	0	0	0	505	510	2	1018	40	26	
5	0	0	0	0	509	510	3	1018	40	25	
6	0	0	0	0	510	510	3	1018	40	26	
7	0	0	0	0	503	509	0	1018	40	26	
8	0	0	0	0	504	508	2	1018	40	26	
9	0	0	0	0	501	508	1	1018	40	26	
10	0	0	0	0	506	507	2	1018	40	26	
11	0	0	0	0	507	505	2	0	40	26	
12	0	0	0	0	518	505	3	0	40	26	
13	0	0	0	0	524	503	2	0	40	25	
14	0	0	0	0	532	504	1	0	40	26	
15	0	0	0	0	533	507	0	0	40	26	
0	0	0	0	0	526	508	3	0	40	26	
1	0	0	0	0	519	510	1	0	40	26	
2	0	0	0	0	520	513	3	0	40	26	
3	0	0	0	0	517	515	2	0	40	26	
4	0	0	0	0	511	514	3	1019	40	26	
5	0	0	0	0	504	513	3	1018	40	25	
6	0	0	0	0	505	511	2	1018	40	26	
7	0	0	0	0	506	510	1	1018	40	26	
8	0	0	0	0	504	510	2	1018	40	26	
9	0	0	0	0	504	510	1	1018	40	26	
10	0	0	0	0	512	509	2	1018	40	26	
11	0	0	0	0	518	509	2	1017	40	26	
12	0	0	0	0	519	508	3	153	40	26	
13	0	0	0	0	520	507	2	0	40	26	
14	0	0	0	0	522	506	1	0	40	26	
15	0	0	0	0	522	506	0	0	40	26	
0	0	0	0	0	514	508	3	0	39	26	
1	0	0	0	0	505	508	1	0	40	26	
2	0	0	0	0	505	509	3	0	40	26	
3	0	0	0	0	503	510	2	0	40	26	
4	0	0	0	0	506	510	2	699	40	26	
5	0	0	0	0	511	512	3	1018	40	26	
6	0	0	0	0	512	513	2	1018	40	26	
7	0	0	0	0	514	512	1	1018	40	26	
8	0	0	0	0	510	511	1	1017	40	26	
9	0	0	0	0	508	510	1	1018	40	26	
10	0	0	0	0	508	512	2	1018	40	26	
11	0	0	0	0	513	511	2	1018	40	26	
12	0	0	0	0	518	510	1	1017	40	26	
13	0	0	0	0	527	508	1	0	40	26	
14	0	0	0	0	527	507	0	0	40	26	
15	0	0	0	0	521	505	2	0	40	25	
0	0	0	0	0	516	507	2	0	40	26	
1	0	0	0	0	506	506	0	0	40	26	
2	0	0	0	0	505	508	2	0	40	26	
3	0	0	0	0	501	511	1	0	40	26	
4	0	0	0	0	502	514	2	0	40	26	
5	0	0	0	0	501	513	2	717	40	25	
6	0	0	0	0	505	514	1	1018	40	26	
7	0	0	0	0	514	513	2	1018	40	26	
8	0	0	0	0	516	512	3	1019	40	26	
9	0	0	0	0	511	511	2	1018	40	26	
10	0	0	0	0	511	510	1	1018	40	26	
11	0	0	0	0	508	510	2	1018	40	25	
12	0	0	0	0	514	510	2	1019	40	26	
13	0	0	0	0	518	508	0	35	40	25	
14	0	0	0	0	519	508	2	0	40	26	
15	0	0	0	0	521	508	0	0	40	26	
0	0	0	0	0	517	507	1	0	40	26	
1	0	0	0	0	516	508	2	0	40	26	
2	0	0	0	0	508	512	1	0	40	26	
3	0	0	0	0	508	512	2	0	40	26	
4	0	0	0	0	507	511	1	0	40	26	
5	0	0	0	0	509	512	2	0	40	25	
6	0	0	0	0	512	513	3	1018	40	26	
7	0	0	0	0	512	512	1	1018	40	26	
8	0	0	0	0	512	510	4	1019	40	26	
9	0	0	0	0	513	509	3	1018	40	26	
10	0	0	0	0	510	509	1	1018	40	26	
11	0	0	0	0	512	510	2	1018	40	26	
12	0	0	0	0	516	510	1	1019	40	26	
13	0	0	0	0	518	509	0	1018	40	26	
14	0	0	0	0	526	509	2	189	40	26	
15	0	0	0	0	523	508	0	0	40	25	
0	0	0	0	0	524	507	2	0	40	26	
1	0	0	0	0	522	508	2	0	40	26	
2	0	0	0	0	513	509	0	0	40	26	
3	0	0	0	0	508	510	2	0	40	25	
4	0	0	0	0	502	511	2	0	40	26	
5	0	0	0	0	503	514	0	0	40	25	
6	0	0	0	0	502	515	3	316	40	26	
7	0	0	0	0	505	517	1	1018	40	26	
8	0	0	0	0	508	515	2	1018	40	26	
9	0	0	0	0	513	512	2	1019	40	26	
10	0	0	0	0	514	512	1	1018	40	26	
11	0	0	0	0	513	512	2	1018	40	26	
12	0	0	0	0	513	511	3	1019	40	26	
13	0	0	0	0	516	508	3	1018	40	25	
14	0	0	0	0	520	508	1	529	40	25	
15	0	0	0	0	523	507	0	0	40	26	
0	0	0	0	0	524	504	2	0	40	26	
1	0	0	0	0	521	504	0	0	40	26	
2	0	0	0	0	521	506	2	0	40	26	
3	0	0	0	0	513	509	2	0	40	26	
4	0	0	0	0	508	509	1	0	40	26	
5	0	0	0	0	505	511	2	0	40	25	
6	0	0	0	0	500	512	1	0	40	26	
7	0	0	0	0	499	514	3	1018	40	25	
8	0	0	0	0	502	514	3	1019	40	26	
9	0	0	0	0	506	513	0	1018	40	26	
10	0	0	0	0	510	513	3	1018	40	26	
11	0	0	0	0	510	514	0	1018	40	26	
12	0	0	0	0	509	513	3	1019	40	26	
13	0	0	0	0	514	514	3	1019	40	25	
14	0	0	0	0	518	512	0	1018	40	26	
15	0	0	0	0	517	510	2	702	40	26	
0	0	0	0	0	521	508	2	0	40	26	
1	0	0	0	0	526	508	0	0	40	26	
2	0	0	0	0	531	507	2	0	40	26	
3	0	0	0	0	527	511	0	0	40	26	
4	0	0	0	0	512	510	1	0	40	26	
5	0	0	0	0	498	512	1	0	40	26	
6	0	0	0	0	492	512	3	0	40	26	
7	0	0	0	0	486	513	2	0	40	25	
8	0	0	0	0	494	514	4	1019	40	26	
9	0	0	0	0	502	513	3	1018	40	26	
10	0	0	0	0	513	515	1	1018	40	26	
11	0	0	0	0	522	514	2	1018	40	25	
12	0	0	0	0	524	513	1	1018	40	26	
13	0	0	0	0	531	512	2	1018	40	26	
14	0	0	0	0	541	511	0	1018	40	26	
15	0	0	0	0	543	513	2	1018	40	26	
0	0	0	0	0	536	511	2	284	40	26	
1	0	0	0	0	520	507	2	0	40	25	
2	0	0	0	0	505	509	1	0	40	26	
3	0	0	0	0	490	509	0	0	40	26	
4	0	0	0	0	484	510	3	0	40	26	
5	0	0	0	0	491	512	1	0	40	25	
6	0	0	0	0	502	514	3	0	40	26	
7	0	0	0	0	521	512	0	0	40	26	
8	0	0	0	0	527	511	2	521	40	26	
9	0	0	0	0	535	511	3	1018	40	26	
10	0	0	0	0	540	511	3	1018	40	26	
11	0	0	0	0	532	510	2	1018	40	25	
12	0	0	0	0	503	509	1	1018	40	26	
13	0	0	0	0	480	510	3	1018	40	25	
14	0	0	0	0	474	511	0	1018	40	26	
15	0	0	0	0	492	512	2	1018	40	26	
0	0	0	0	0	496	511	3	1017	40	26	
1	0	0	0	0	511	509	2	0	40	26	
2	0	0	0	0	521	507	1	0	40	26	
3	0	0	0	0	528	507	0	0	40	26	
4	0	0	0	0	526	506	2	0	40	26	
5	0	0	0	0	518	505	0	0	40	25	
6	0	0	0	0	509	508	2	0	40	26	
7	0	0	0	0	508	510	0	0	40	26	
8	0	0	0	0	506	511	2	0	40	26	
9	0	0	0	0	508	512	2	960	40	26	
10	0	0	0	0	510	513	3	1018	40	26	
11	0	0	0	0	512	512	2	1018	40	26	
12	0	0	0	0	516	510	1	1018	40	26	
13	0	0	0	0	508	510	3	1018	40	26	
14	0	0	0	0	503	509	0	1018	40	26	
15	0	0	0	0	500	509	2	1018	40	25	
0	0	0	0	0	502	510	1	1019	40	26	
1	0	0	0	0	505	508	2	362	40	26	
2	0	0	0	0	513	507	1	0	40	26	
3	0	0	0	0	522	507	2	0	40	25	
4	0	0	0	0	535	508	2	0	40	26	
5	0	0	0	0	536	507	0	0	40	26	
6	0	0	0	0	527	507	2	0	40	26	
7	0	0	0	0	527	508	0	0	40	26	
8	0	0	0	0	526	509	4	0	40	26	
9	0	0	0	0	508	509	1	0	40	26	
10	0	0	0	0	500	511	3	1018	40	26	
11	0	0	0	0	498	510	1	1018	40	26	
12	0	0	0	0	500	508	3	1019	40	26	
13	0	0	0	0	511	507	3	1018	40	25	
14	0	0	0	0	519	507	1	1018	40	25	
15	0	0	0	0	527	509	3	1018	40	26	
0	0	0	0	0	529	510	3	1019	40	26	
1	0	0	0	0	526	508	2	690	40	26	
2	0	0	0	0	521	508	0	0	40	26	
3	0	0	0	0	518	508	2	0	40	26	
4	0	0	0	0	510	508	1	0	40	26	
5	0	0	0	0	512	504	0	0	40	26	
6	0	0	0	0	506	507	2	0	40	26	
7	0	0	0	0	503	508	0	0	40	26	
8	0	0	0	0	507	507	1	0	40	26	
9	0	0	0	0	512	509	1	0	40	26	
10	0	0	0	0	509	512	3	0	40	26	
11	0	0	0	0	497	513	1	1018	40	26	
12	0	0	0	0	502	511	4	1019	40	26	
13	0	0	0	0	509	510	1	1018	40	25	
14	0	0	0	0	513	511	2	1018	40	26	
15	0	0	0	0	518	512	1	1018	40	26	
0	0	0	0	0	524	511	3	1018	40	26	
1	0	0	0	0	521	510	3	1018	40	26	
2	0	0	0	0	510	511	0	139	40	26	
3	0	0	0	0	503	510	2	0	40	26	
4	0	0	0	0	500	507	3	0	40	26	
5	0	0	0	0	507	507	2	0	40	26	
6	0	0	0	0	504	505	1	0	40	26	
7	0	0	0	0	508	507	0	0	40	26	
8	0	0	0	0	510	507	1	0	40	26	
9	0	0	0	0	515	508	0	0	40	26	
10	0	0	0	0	527	511	3	0	40	26	
11	0	0	0	0	538	511	1	1018	40	26	
12	0	0	0	0	528	511	4	1018	40	26	
13	0	0	0	0	516	512	3	1018	40	26	
14	0	0	0	0	522	512	1	1018	40	26	
15	0	0	0	0	508	511	2	1018	40	26	
0	0	0	0	0	502	511	2	1019	40	26	
1	0	0	0	0	510	511	3	1018	40	26	
2	0	0	0	0	531	510	2	1018	40	26	
3	0	0	0	0	536	511	0	427	40	26	
4	0	0	0	0	515	510	3	0	40	26	
5	0	0	0	0	499	508	1	0	40	25	
6	0	0	0	0	505	508	2	0	40	26	
7	0	0	0	0	503	510	2	0	40	26	
8	0	0	0	0	508	512	3	0	40	26	
9	0	0	0	0	499	512	3	0	40	26	
10	0	0	0	0	491	512	2	0	40	26	
11	0	0	0	0	499	513	0	0	40	26	
12	0	0	0	0	504	512	3	1017	40	26	
13	0	0	0	0	504	513	2	1018	40	25	
14	0	0	0	0	504	515	1	1018	40	26	
15	0	0	0	0	514	512	2	1018	40	25	
0	0	0	0	0	521	512	2	1019	40	26	
1	0	0	0	0	535	510	0	1018	40	26	
2	0	0	0	0	530	509	2	1018	40	26	
3	0	0	0	0	526	510	0	582	40	26	
4	0	0	0	0	517	509	1	0	40	26	
5	0	0	0	0	505	508	2	0	40	26	
6	0	0	0	0	505	508	0	0	40	26	
7	0	0	0	0	510	508	2	0	40	26	
8	0	0	0	0	519	508	2	0	40	26	
9	0	0	0	0	533	509	0	0	40	26	
10	0	0	0	0	548	512	2	0	40	26	
11	0	0	0	0	552	512	1	0	40	26	
12	0	0	0	0	548	512	3	709	40	26	
13	0	0	0	0	524	513	3	1018	40	26	
14	0	0	0	0	493	514	2	1018	40	26	
15	0	0	0	0	456	513	1	1018	40	26	
0	0	0	0	0	430	513	3	1019	40	26	
1	0	0	0	0	424	513	1	1018	40	26	
2	0	0	0	0	419	513	2	1018	40	26	
3	0	0	0	0	452	512	2	1018	40	26	
4	0	0	0	0	487	511	2	1019	40	26	
5	0	0	0	0	511	510	2	2	40	26	
6	0	0	0	0	518	508	1	0	40	26	
7	0	0	0	0	538	509	0	0	40	26	
8	0	0	0	0	572	508	1	0	40	26	
9	0	0	0	0	578	510	1	0	40	26	
10	0	0	0	0	596	512	0	0	40	26	
11	0	0	0	0	598	513	2	0	40	26	
12	0	0	0	0	574	515	3	0	40	26	
13	0	0	0	0	542	515	2	815	40	25	
14	0	0	0	0	492	513	3	1019	40	25	
15	0	0	0	0	471	515	0	1018	40	26	
0	0	0	0	0	476	514	3	1019	40	26	
1	0	0	0	0	472	514	3	1018	40	26	
2	0	0	0	0	466	514	0	1018	40	26	
3	0	0	0	0	495	512	2	1018	40	25	
4	0	0	0	0	519	510	1	1019	40	26	
5	0	0	0	0	560	510	0	214	40	25	
6	0	0	0	0	585	508	2	0	40	26	
7	0	0	0	0	596	507	1	0	40	26	
8	0	0	0	0	577	507	3	0	40	26	
9	0	0	0	0	552	507	1	0	40	26	
10	0	0	0	0	509	509	1	0	40	26	
11	0	0	0	0	451	509	1	0	40	26	
12	0	0	0	0	421	509	2	0	40	26	
13	0	0	0	0	411	510	2	0	40	25	
14	0	0	0	0	412	510	1	1018	40	26	
15	0	0	0	0	432	511	3	1018	40	26	
0	0	0	0	0	484	512	3	1019	39	26	
1	0	0	0	0	511	511	1	1018	40	26	
2	0	0	0	0	521	512	3	1019	40	26	
3	0	0	0	0	550	514	0	1018	40	26	
4	0	0	0	0	561	512	2	1019	40	26	
5	0	0	0	0	548	511	3	1018	40	26	
6	0	0	0	0	538	512	0	1018	40	26	
7	0	0	0	0	534	510	2	67	40	25	
8	0	0	0	0	551	508	2	0	40	26	
9	0	0	0	0	557	507	0	0	40	26	
10	0	0	0	0	545	510	2	0	40	26	
11	0	0	0	0	544	512	1	0	40	26	
12	0	0	0	0	522	513	3	0	40	26	
13	0	0	0	0	519	513	3	0	40	25	
14	0	0	0	0	511	515	1	0	40	26	
15	0	0	0	0	496	516	3	1018	40	26	
0	0	0	0	0	499	515	3	1019	40	26	
1	0	0	0	0	506	512	1	1018	40	26	
2	0	0	0	0	522	511	2	1018	40	26	
3	0	0	0	0	525	511	1	1018	40	26	
4	0	0	0	0	524	511	2	1017	40	26	
5	0	0	0	0	521	510	2	710	40	25	
6	0	0	0	0	496	511	1	0	40	26	
7	0	0	0	0	481	511	0	0	40	26	
8	0	0	0	0	471	508	1	0	40	26	
9	0	0	0	0	455	508	0	0	40	26	
10	0	0	0	0	448	508	2	0	40	26	
11	0	0	0	0	454	508	1	0	40	26	
12	0	0	0	0	468	508	3	0	40	26	
13	0	0	0	0	476	510	3	0	40	25	
14	0	0	0	0	512	511	0	0	40	26	
15	0	0	0	0	553	512	3	688	40	25	
0	0	0	0	0	552	510	2	1018	40	26	
1	0	0	0	0	561	510	1	1018	40	26	
2	0	0	0	0	555	508	2	1018	40	26	
3	0	0	0	0	530	510	0	1018	40	26	
4	0	0	0	0	515	509	3	1019	40	26	
5	0	0	0	0	523	508	1	1018	40	26	
6	0	0	0	0	530	508	1	694	40	26	
7	0	0	0	0	523	507	1	0	40	26	
8	0	0	0	0	518	506	3	0	40	26	
9	0	0	0	0	508	505	2	0	40	25	
10	0	0	0	0	471	506	0	0	40	26	
11	0	0	0	0	446	508	2	0	40	26	
12	0	0	0	0	441	510	3	0	40	26	
13	0	0	0	0	454	510	1	0	40	26	
14	0	0	0	0	472	510	3	0	40	25	
15	0	0	0	0	506	511	1	537	40	25	
0	0	0	0	0	576	513	4	1019	40	26	
1	0	0	0	0	645	511	2	1018	40	26	
2	0	0	0	0	688	510	1	1018	40	26	
3	0	0	0	0	641	510	2	1018	40	25	
4	0	0	0	0	607	512	2	1019	40	26	
5	0	0	0	0	567	511	0	1019	40	25	
6	0	0	0	0	501	512	3	1018	40	26	
7	0	0	0	0	460	510	0	1018	40	26	
8	0	0	0	0	464	508	2	1019	40	25	
9	0	0	0	0	480	507	1	1018	40	25	
10	0	0	0	0	465	507	2	0	40	26	
11	0	0	0	0	466	508	1	0	40	26	
12	0	0	0	0	467	510	1	0	40	26	
13	0	0	0	0	471	509	2	0	40	25	
14	0	0	0	0	486	510	1	0	40	26	
15	0	0	0	0	496	513	1	0	40	26	
0	0	0	0	0	505	515	4	1019	40	26	
1	0	0	0	0	531	513	2	1018	40	26	
2	0	0	0	0	523	512	2	1018	40	26	
3	0	0	0	0	540	509	3	1018	40	25	
4	0	0	0	0	538	509	1	1019	40	26	
5	0	0	0	0	527	509	2	1018	40	25	
6	0	0	0	0	510	509	1	1018	40	26	
7	0	0	0	0	497	509	2	1018	40	25	
8	0	0	0	0	486	502	2	1018	40	26	
9	0	0	0	0	498	501	0	1018	40	26	
10	0	0	0	0	501	501	2	672	40	26	
11	0	0	0	0	487	501	0	0	40	26	
12	0	0	0	0	481	502	3	0	40	26	
13	0	0	0	0	465	504	3	0	40	25	
14	0	0	0	0	442	505	0	0	40	25	
15	0	0	0	0	427	509	2	0	40	25	
0	0	0	0	0	449	510	2	0	40	26	
1	0	0	0	0	476	507	2	1018	40	25	
2	0	0	0	0	502	508	4	1018	40	25	
3	0	0	0	0	545	510	1	1018	40	25	
4	0	0	0	0	570	508	3	1019	40	26	
5	0	0	0	0	591	509	3	1018	40	25	
6	0	0	0	0	624	507	1	1018	40	25	
7	0	0	0	0	615	506	2	1018	40	25	
8	0	0	0	0	598	506	1	1019	40	26	
9	0	0	0	0	576	505	1	1018	40	25	
10	0	0	0	0	567	505	2	1018	40	25	
11	0	0	0	0	520	506	0	1017	40	25	
12	0	0	0	0	473	503	1	0	40	25	
13	0	0	0	0	455	506	0	0	40	25	
14	0	0	0	0	450	508	2	0	40	25	
15	0	0	0	0	446	511	2	0	40	25	
0	0	0	0	0	459	513	3	0	40	25	
1	0	0	0	0	478	513	3	0	40	25	
2	0	0	0	0	499	515	2	1018	40	25	
3	0	0	0	0	510	516	1	1018	40	25	
4	0	0	0	0	526	513	2	1019	40	25	
5	0	0	0	0	524	511	3	1018	40	25	
6	0	0	0	0	517	510	1	1018	40	25	
7	0	0	0	0	513	511	0	1018	40	25	
8	0	0	0	0	525	510	1	1019	40	25	
9	0	0	0	0	540	508	1	1018	40	25	
10	0	0	0	0	552	508	0	1018	40	25	
11	0	0	0	0	541	508	2	316	40	25	
12	0	0	0	0	507	507	0	0	40	25	
13	0	0	0	0	477	507	0	0	40	25	
14	0	0	0	0	452	509	0	0	40	25	
15	0	0	0	0	449	511	2	0	40	25	
0	0	0	0	0	470	511	3	0	40	25	
1	0	0	0	0	519	513	1	0	40	25	
2	0	0	0	0	544	515	3	668	40	25	
3	0	0	0	0	575	514	3	1018	40	25	
4	0	0	0	0	563	514	3	1019	40	25	
5	0	0	0	0	551	512	1	1018	40	25	
6	0	0	0	0	530	510	3	1018	40	25	
7	0	0	0	0	511	508	2	1018	40	25	
8	0	0	0	0	497	508	3	1019	40	25	
9	0	0	0	0	508	506	1	1018	40	25	
10	0	0	0	0	515	507	3	1018	40	25	
11	0	0	0	0	515	506	0	1018	40	25	
12	0	0	0	0	499	504	1	1017	40	25	
13	0	0	0	0	510	504	2	0	40	25	
14	0	0	0	0	502	506	1	0	40	25	
15	0	0	0	0	488	509	0	0	40	25	
0	0	0	0	0	498	510	1	0	40	25	
1	0	0	0	0	531	512	3	0	40	25	
2	0	0	0	0	570	514	1	0	40	25	
3	0	0	0	0	548	514	2	1018	40	25	
4	0	0	0	0	522	513	3	1019	40	25	
5	0	0	0	0	489	512	2	1018	40	25	
6	0	0	0	0	448	511	1	1018	40	25	
7	0	0	0	0	408	510	3	1018	40	25	
8	0	0	0	0	401	510	2	1019	40	25	
9	0	0	0	0	429	508	0	1018	40	25	
10	0	0	0	0	475	508	2	1018	40	25	
11	0	0	0	0	526	508	1	1018	40	25	
12	0	0	0	0	568	509	3	1018	40	25	
13	0	0	0	0	575	507	2	0	40	25	
14	0	0	0	0	557	507	2	0	40	25	
15	0	0	0	0	540	510	0	0	40	25	
0	0	0	0	0	552	511	3	0	40	25	
1	0	0	0	0	559	512	3	0	40	25	
2	0	0	0	0	573	513	1	0	40	25	
3	0	0	0	0	595	515	3	0	40	25	
4	0	0	0	0	566	515	4	1019	40	25	
5	0	0	0	0	561	513	2	1018	40	25	
6	0	0	0	0	574	512	3	1018	40	25	
7	0	0	0	0	568	511	3	1018	40	25	
8	0	0	0	0	550	510	3	1018	40	25	
9	0	0	0	0	524	511	2	1018	40	25	
10	0	0	0	0	495	511	2	1018	40	25	
11	0	0	0	0	473	512	0	1018	40	25	
12	0	0	0	0	464	509	1	1019	40	25	
13	0	0	0	0	470	508	2	0	40	25	
14	0	0	0	0	484	510	0	0	40	25	
15	0	0	0	0	484	509	0	0	40	25	
0	0	0	0	0	459	509	2	0	40	25	
1	0	0	0	0	429	510	3	0	40	25	
2	0	0	0	0	410	514	0	0	40	25	
3	0	0	0	0	403	514	2	0	40	25	
4	0	0	0	0	414	513	3	0	40	25	
5	0	0	0	0	435	514	1	1018	40	25	
6	0	0	0	0	470	515	3	1019	40	25	
7	0	0	0	0	526	514	2	1018	40	25	
8	0	0	0	0	565	514	2	1018	40	25	
9	0	0	0	0	589	513	2	1018	40	25	
10	0	0	0	0	594	511	2	1018	40	25	
11	0	0	0	0	579	510	0	1018	40	25	
12	0	0	0	0	572	509	2	1018	40	25	
13	0	0	0	0	568	508	2	1018	40	25	
14	0	0	0	0	542	507	0	0	40	25	
15	0	0	0	0	519	508	2	0	40	25	
0	0	0	0	0	513	506	1	0	40	25	
1	0	0	0	0	516	508	1	0	40	25	
2	0	0	0	0	520	512	0	0	40	25	
3	0	0	0	0	534	514	2	0	40	25	
4	0	0	0	0	550	516	2	0	40	25	
5	0	0	0	0	553	516	1	0	40	25	
6	0	0	0	0	537	516	3	1018	40	25	
7	0	0	0	0	515	515	2	1018	40	25	
8	0	0	0	0	505	512	3	1019	40	25	
9	0	0	0	0	477	513	3	1018	40	25	
10	0	0	0	0	463	512	2	1018	40	25	
11	0	0	0	0	460	512	0	1018	40	25	
12	0	0	0	0	467	511	2	1019	40	25	
13	0	0	0	0	459	509	2	1018	40	25	
14	0	0	0	0	470	509	0	36	40	25	
15	0	0	0	0	499	508	2	0	40	25	
0	0	0	0	0	520	507	2	0	40	25	
1	0	0	0	0	534	508	0	0	40	25	
2	0	0	0	0	531	508	2	0	40	25	
3	0	0	0	0	567	511	2	0	40	25	
4	0	0	0	0	576	512	3	0	40	25	
5	0	0	0	0	547	512	3	0	40	25	
6	0	0	0	0	560	514	1	1018	40	25	
7	0	0	0	0	534	514	3	1018	40	25	
8	0	0	0	0	509	514	3	1019	39	25	
9	0	0	0	0	464	512	1	1018	40	25	
10	0	0	0	0	449	512	3	1019	40	25	
11	0	0	0	0	452	513	0	1018	40	25	
12	0	0	0	0	450	512	3	1019	40	25	
13	0	0	0	0	440	511	2	1018	40	25	
14	0	0	0	0	467	511	0	1018	40	25	
15	0	0	0	0	491	511	2	237	40	25	
0	0	0	0	0	521	510	1	0	40	25	
1	0	0	0	0	534	509	0	0	40	25	
2	0	0	0	0	529	510	2	0	40	25	
3	0	0	0	0	542	512	0	0	40	25	
4	0	0	0	0	560	514	3	0	40	25	
5	0	0	0	0	582	512	1	0	40	25	
6	0	0	0	0	575	514	3	0	40	25	
7	0	0	0	0	557	514	3	1018	40	25	
8	0	0	0	0	544	512	3	1018	40	25	
9	0	0	0	0	555	513	3	1019	40	25	
10	0	0	0	0	531	515	1	1018	40	25	
11	0	0	0	0	474	515	2	1018	40	25	
12	0	0	0	0	449	515	1	1019	40	25	
13	0	0	0	0	465	515	0	1018	40	25	
14	0	0	0	0	510	513	2	1018	40	25	
15	0	0	0	0	551	512	0	1018	40	25	
0	0	0	0	0	576	509	1	10	40	25	
1	0	0	0	0	576	507	2	0	40	25	
2	0	0	0	0	553	507	0	0	40	25	
3	0	0	0	0	527	508	2	0	40	25	
4	0	0	0	0	500	510	1	0	40	25	
5	0	0	0	0	464	511	3	0	40	25	
6	0	0	0	0	435	513	3	0	40	25	
7	0	0	0	0	412	513	1	0	40	25	
8	0	0	0	0	416	513	3	1018	40	25	
9	0	0	0	0	423	512	2	1018	40	25	
10	0	0	0	0	450	511	3	1018	40	25	
11	0	0	0	0	466	511	2	1018	40	25	
12	0	0	0	0	489	509	3	1019	40	25	
13	0	0	0	0	532	510	2	1018	40	25	
14	0	0	0	0	562	511	1	1018	40	25	
15	0	0	0	0	569	509	0	1018	40	25	
0	0	0	0	0	568	508	3	216	40	25	
1	0	0	0	0	582	504	0	0	40	25	
2	0	0	0	0	589	505	2	0	40	25	
3	0	0	0	0	569	506	0	0	40	25	
4	0	0	0	0	574	506	1	0	40	25	
5	0	0	0	0	560	509	3	0	40	25	
6	0	0	0	0	549	509	1	0	40	25	
7	0	0	0	0	527	511	3	0	40	25	
8	0	0	0	0	505	513	3	1017	40	25	
9	0	0	0	0	487	511	1	1018	40	25	
10	0	0	0	0	499	511	3	1018	40	25	
11	0	0	0	0	523	511	1	1018	40	25	
12	0	0	0	0	524	510	3	1019	40	25	
13	0	0	0	0	513	509	2	1018	40	25	
14	0	0	0	0	511	509	0	1018	40	25	
15	0	0	0	0	519	508	2	1018	40	25	
0	0	0	0	0	527	508	2	1019	40	25	
1	0	0	0	0	527	506	2	342	40	25	
2	0	0	0	0	510	505	0	0	40	25	
3	0	0	0	0	470	503	2	0	40	25	
4	0	0	0	0	430	504	2	0	40	25	
5	0	0	0	0	420	508	1	0	40	25	
6	0	0	0	0	430	510	3	0	40	25	
7	0	0	0	0	463	513	1	0	40	25	
8	0	0	0	0	498	514	4	0	39	25	
9	0	0	0	0	522	514	4	1018	40	25	
10	0	0	0	0	541	513	1	1018	40	25	
11	0	0	0	0	526	511	3	1018	40	24	
12	0	0	0	0	483	511	2	1019	40	25	
13	0	0	0	0	465	510	0	1018	40	24	
14	0	0	0	0	451	511	2	1018	40	24	
15	0	0	0	0	452	511	1	1018	40	24	
0	0	0	0	0	496	510	1	1018	40	24	
1	0	0	0	0	556	508	2	1018	40	24	
2	0	0	0	0	601	506	1	551	40	24	
3	0	0	0	0	625	505	0	0	40	24	
4	0	0	0	0	622	503	1	0	40	24	
5	0	0	0	0	574	505	1	0	40	24	
6	0	0	0	0	528	507	2	0	40	24	
7	0	0	0	0	483	510	2	0	40	24	
8	0	0	0	0	452	509	2	0	40	24	
9	0	0	0	0	415	510	3	0	40	24	
10	0	0	0	0	411	512	3	1018	40	24	
11	0	0	0	0	432	512	2	1018	40	24	
12	0	0	0	0	471	510	4	1019	40	24	
13	0	0	0	0	516	509	2	1018	40	24	
14	0	0	0	0	549	508	3	1018	40	24	
15	0	0	0	0	547	507	2	1018	40	24	
0	0	0	0	0	554	506	2	1019	40	24	
1	0	0	0	0	569	504	2	1018	40	24	
2	0	0	0	0	567	503	1	1018	40	24	
3	0	0	0	0	579	503	0	0	40	24	
4	0	0	0	0	620	502	2	0	40	24	
5	0	0	0	0	627	503	0	0	40	24	
6	0	0	0	0	620	505	2	0	40	24	
7	0	0	0	0	585	510	1	0	40	24	
8	0	0	0	0	527	511	3	0	40	24	
9	0	0	0	0	510	512	3	0	40	24	
10	0	0	0	0	476	511	1	0	40	24	
11	0	0	0	0	466	513	3	1018	40	24	
12	0	0	0	0	446	514	3	1019	40	24	
13	0	0	0	0	445	512	1	1018	40	24	
14	0	0	0	0	467	513	3	1018	40	24	
15	0	0	0	0	485	512	0	1018	40	24	
0	0	0	0	0	491	511	3	1019	40	24	
1	0	0	0	0	473	511	1	1018	40	24	
2	0	0	0	0	482	510	0	1018	40	24	
3	0	0	0	0	470	507	2	0	40	24	
4	0	0	0	0	457	507	1	0	40	24	
5	0	0	0	0	458	505	2	0	40	24	
6	0	0	0	0	483	508	1	0	40	24	
7	0	0	0	0	504	510	0	0	40	24	
8	0	0	0	0	529	511	2	0	40	24	
9	0	0	0	0	526	512	1	0	40	24	
10	0	0	0	0	501	515	3	0	40	24	
11	0	0	0	0	480	518	2	1018	40	24	
12	0	0	0	0	489	515	3	1019	40	24	
13	0	0	0	0	507	515	3	1018	40	24	
14	0	0	0	0	544	513	1	1018	40	24	
15	0	0	0	0	546	513	3	1018	40	24	
0	0	0	0	0	516	513	3	1019	40	24	
1	0	0	0	0	505	513	3	1018	40	24	
2	0	0	0	0	504	514	2	1018	40	24	
3	0	0	0	0	508	512	0	1018	40	24	
4	0	0	0	0	526	510	1	0	40	24	
5	0	0	0	0	547	508	1	0	40	24	
6	0	0	0	0	540	506	2	0	40	24	
7	0	0	0	0	540	509	2	0	40	24	
8	0	0	0	0	544	508	3	0	40	24	
9	0	0	0	0	543	510	2	0	40	24	
10	0	0	0	0	526	512	2	0	40	24	
11	0	0	0	0	502	513	2	0	40	24	
12	0	0	0	0	501	514	2	1018	40	24	
13	0	0	0	0	482	514	1	1018	40	24	
14	0	0	0	0	493	511	3	1018	40	24	
15	0	0	0	0	506	512	2	1018	40	24	
0	0	0	0	0	568	509	2	1018	40	24	
1	0	0	0	0	570	508	2	1018	40	24	
2	0	0	0	0	577	510	1	1018	40	24	
3	0	0	0	0	572	510	2	1018	40	24	
4	0	0	0	0	571	504	2	0	40	24	
5	0	0	0	0	537	503	0	0	40	24	
6	0	0	0	0	496	502	2	0	40	24	
7	0	0	0	0	448	503	1	0	40	24	
8	0	0	0	0	406	507	3	0	40	24	
9	0	0	0	0	418	509	2	0	40	24	
10	0	0	0	0	440	512	1	0	40	24	
11	0	0	0	0	447	514	3	0	40	24	
12	0	0	0	0	464	515	4	0	40	24	
13	0	0	0	0	475	514	2	1018	40	24	
14	0	0	0	0	487	512	3	1018	40	24	
15	0	0	0	0	538	512	3	1018	40	24	
0	0	0	0	0	550	511	3	1018	40	24	
1	0	0	0	0	556	511	0	1018	40	24	
2	0	0	0	0	564	509	2	1018	40	24	
3	0	0	0	0	592	509	0	1018	40	24	
4	0	0	0	0	568	505	2	0	40	24	
5	0	0	0	0	584	503	1	0	40	24	
6	0	0	0	0	621	502	0	0	40	24	
7	0	0	0	0	659	502	2	0	40	24	
8	0	0	0	0	630	504	2	0	40	24	
9	0	0	0	0	540	506	2	0	40	24	
10	0	0	0	0	453	510	1	0	40	24	
11	0	0	0	0	423	511	0	0	40	24	
12	0	0	0	0	414	512	4	0	40	24	
13	0	0	0	0	431	513	2	1018	40	24	
14	0	0	0	0	439	513	3	1018	40	24	
15	0	0	0	0	411	512	3	1018	40	24	
0	0	0	0	0	414	510	1	1019	40	24	
1	0	0	0	0	447	510	2	1018	40	24	
2	0	0	0	0	493	514	1	1018	40	24	
3	0	0	0	0	546	513	2	1018	40	24	
4	0	0	0	0	568	512	1	1019	40	24	
5	0	0	0	0	557	509	0	1018	40	24	
6	0	0	0	0	502	505	1	111	40	24	
7	0	0	0	0	459	503	0	0	40	24	
8	0	0	0	0	491	504	3	0	39	24	
9	0	0	0	0	545	505	2	0	40	24	
10	0	0	0	0	565	508	0	0	40	24	
11	0	0	0	0	567	510	2	0	40	24	
12	0	0	0	0	541	512	3	0	40	24	
13	0	0	0	0	471	515	3	0	40	24	
14	0	0	0	0	412	518	2	1018	40	24	
15	0	0	0	0	412	516	2	1018	40	24	
0	0	0	0	0	435	512	2	1018	40	24	
1	0	0	0	0	488	513	1	1018	40	24	
2	0	0	0	0	541	512	3	1018	40	24	
3	0	0	0	0	580	512	2	1018	40	24	
4	0	0	0	0	587	511	3	1018	40	24	
5	0	0	0	0	618	508	2	1018	40	24	
6	0	0	0	0	583	507	1	1018	40	24	
7	0	0	0	0	571	505	0	0	40	24	
8	0	0	0	0	535	507	1	0	40	24	
9	0	0	0	0	502	506	0	0	40	24	
10	0	0	0	0	475	506	2	0	40	24	
11	0	0	0	0	454	509	1	0	40	24	
12	0	0	0	0	450	510	3	0	40	24	
13	0	0	0	0	452	511	3	0	40	24	
14	0	0	0	0	503	511	2	0	40	24	
15	0	0	0	0	534	513	2	1018	40	24	
0	0	0	0	0	569	513	3	1018	40	25	
1	0	0	0	0	526	512	2	1018	40	24	
2	0	0	0	0	506	514	1	1018	40	25	
3	0	0	0	0	484	513	2	1018	40	25	
4	0	0	0	0	484	510	2	1018	40	25	
5	0	0	0	0	498	510	0	1018	40	25	
6	0	0	0	0	496	509	2	1018	40	25	
7	0	0	0	0	540	506	0	258	40	25	
8	0	0	0	0	572	507	0	0	40	25	
9	0	0	0	0	585	505	1	0	40	25	
10	0	0	0	0	597	508	0	0	40	25	
11	0	0	0	0	585	510	2	0	40	25	
12	0	0	0	0	586	513	2	0	40	25	
13	0	0	0	0	553	513	1	0	40	25	
14	0	0	0	0	499	514	3	0	40	25	
15	0	0	0	0	460	514	1	679	40	25	
0	0	0	0	0	450	515	4	1019	40	25	
1	0	0	0	0	460	512	3	1018	40	25	
2	0	0	0	0	447	512	1	1018	40	25	
3	0	0	0	0	455	513	2	1018	40	25	
4	0	0	0	0	470	511	3	1018	40	25	
5	0	0	0	0	475	510	0	1018	40	25	
6	0	0	0	0	472	510	2	1018	40	25	
7	0	0	0	0	521	510	0	1018	40	25	
8	0	0	0	0	587	508	3	0	40	25	
9	0	0	0	0	589	506	2	0	40	25	
10	0	0	0	0	557	505	0	0	40	25	
11	0	0	0	0	525	507	1	0	40	25	
12	0	0	0	0	511	510	2	0	40	25	
13	0	0	0	0	504	512	0	0	40	25	
14	0	0	0	0	512	516	3	0	40	25	
15	0	0	0	0	476	516	2	0	40	25	
0	0	0	0	0	458	515	4	1019	40	25	
1	0	0	0	0	448	512	3	1018	40	25	
2	0	0	0	0	430	509	2	1018	40	25	
3	0	0	0	0	461	511	1	1018	40	25	
4	0	0	0	0	510	510	2	1018	40	25	
5	0	0	0	0	491	509	1	1018	40	25	
6	0	0	0	0	489	510	0	1018	40	25	
7	0	0	0	0	521	509	2	1018	40	25	
8	0	0	0	0	531	508	2	567	40	25	
9	0	0	0	0	556	504	2	0	40	25	
10	0	0	0	0	585	505	1	0	40	25	
11	0	0	0	0	587	503	0	0	40	25	
12	0	0	0	0	583	507	2	0	40	25	
13	0	0	0	0	572	510	1	0	40	25	
14	0	0	0	0	563	513	3	0	40	25	
15	0	0	0	0	512	515	1	0	40	25	
0	0	0	0	0	479	515	2	0	40	25	
1	0	0	0	0	457	515	3	1018	40	25	
2	0	0	0	0	453	515	1	1018	40	25	
3	0	0	0	0	443	514	3	1018	40	25	
4	0	0	0	0	444	512	3	1019	40	25	
5	0	0	0	0	483	513	1	1019	40	25	
6	0	0	0	0	592	512	2	1018	40	25	
7	0	0	0	0	558	511	0	1018	40	25	
8	0	0	0	0	579	509	3	1019	40	25	
9	0	0	0	0	589	505	0	0	40	25	
10	0	0	0	0	575	504	1	0	40	25	
11	0	0	0	0	551	503	0	0	40	25	
12	0	0	0	0	524	504	3	0	40	25	
13	0	0	0	0	495	505	2	0	40	25	
14	0	0	0	0	482	508	1	0	40	25	
15	0	0	0	0	475	510	2	0	40	25	
0	0	0	0	0	480	511	3	0	40	25	
1	0	0	0	0	467	512	2	369	40	25	
2	0	0	0	0	464	513	3	1018	40	25	
3	0	0	0	0	475	512	1	1018	40	25	
4	0	0	0	0	486	509	2	1018	40	25	
5	0	0	0	0	502	510	1	1018	40	25	
6	0	0	0	0	518	510	3	1018	40	25	
7	0	0	0	0	528	511	1	1018	40	25	
8	0	0	0	0	515	510	3	1019	40	25	
9	0	0	0	0	505	507	2	1018	40	25	
10	0	0	0	0	509	506	0	0	40	25	
11	0	0	0	0	504	507	1	0	40	25	
12	0	0	0	0	530	506	1	0	40	25	
13	0	0	0	0	593	509	0	0	40	25	
14	0	0	0	0	553	511	2	0	40	25	
15	0	0	0	0	499	514	0	0	40	25	
0	0	0	0	0	504	516	4	0	39	25	
1	0	0	0	0	507	514	1	0	40	25	
2	0	0	0	0	525	514	3	1018	40	25	
3	0	0	0	0	516	514	1	1018	40	25	
4	0	0	0	0	508	513	4	1019	40	25	
5	0	0	0	0	483	513	3	1018	40	25	
6	0	0	0	0	481	513	1	1018	40	25	
7	0	0	0	0	516	513	2	1018	40	25	
8	0	0	0	0	528	511	3	1018	40	25	
9	0	0	0	0	537	510	2	1018	40	25	
10	0	0	0	0	537	509	0	1018	40	25	
11	0	0	0	0	527	505	1	0	40	24	
12	0	0	0	0	521	503	1	0	40	24	
13	0	0	0	0	539	505	0	0	40	24	
14	0	0	0	0	546	508	2	0	40	24	
15	0	0	0	0	524	512	0	0	40	24	
0	0	0	0	0	568	513	3	0	40	24	
1	0	0	0	0	588	515	2	0	40	24	
2	0	0	0	0	561	516	2	0	40	24	
3	0	0	0	0	512	517	3	1018	40	24	
4	0	0	0	0	476	517	3	1019	40	24	
5	0	0	0	0	440	516	1	1018	40	24	
6	0	0	0	0	389	517	3	1018	40	24	
7	0	0	0	0	381	517	0	1018	40	24	
8	0	0	0	0	413	515	1	1018	40	24	
9	0	0	0	0	448	513	2	1018	40	24	
10	0	0	0	0	450	510	0	1018	40	24	
11	0	0	0	0	520	505	1	114	40	24	
12	0	0	0	0	551	504	2	0	40	24	
13	0	0	0	0	571	503	2	0	40	24	
14	0	0	0	0	597	505	1	0	40	24	
15	0	0	0	0	581	509	0	0	40	24	
0	0	0	0	0	531	511	3	0	40	24	
1	0	0	0	0	499	511	1	0	40	24	
2	0	0	0	0	484	514	3	0	40	24	
3	0	0	0	0	439	516	3	1017	40	24	
4	0	0	0	0	406	516	4	1019	40	24	
5	0	0	0	0	423	512	3	1019	40	24	
6	0	0	0	0	511	512	1	1018	40	24	
7	0	0	0	0	537	512	2	1018	40	24	
8	0	0	0	0	535	511	3	1019	40	24	
9	0	0	0	0	542	511	0	1018	40	24	
10	0	0	0	0	547	509	3	1018	40	24	
11	0	0	0	0	557	508	0	1018	40	24	
12	0	0	0	0	534	507	3	1019	40	24	
13	0	0	0	0	518	503	1	0	40	24	
14	0	0	0	0	560	504	0	0	40	24	
15	0	0	0	0	648	505	2	0	40	24	
0	0	0	0	0	652	507	1	0	40	24	
1	0	0	0	0	614	509	3	0	40	24	
2	0	0	0	0	591	512	2	0	40	24	
3	0	0	0	0	571	514	1	0	40	24	
4	0	0	0	0	518	514	3	1019	40	24	
5	0	0	0	0	467	512	1	1019	40	24	
6	0	0	0	0	403	512	3	1018	40	24	
7	0	0	0	0	384	513	1	1018	40	24	
8	0	0	0	0	348	511	3	1019	40	24	
9	0	0	0	0	334	508	3	1018	40	24	
10	0	0	0	0	319	507	0	1018	40	24	
11	0	0	0	0	366	505	2	1018	40	24	
12	0	0	0	0	480	505	2	1019	40	24	
13	0	0	0	0	573	504	0	0	40	24	
14	0	0	0	0	604	503	2	0	40	24	
15	0	0	0	0	619	504	0	0	40	24	
0	0	0	0	0	615	505	1	0	40	24	
1	0	0	0	0	620	509	1	0	40	24	
2	0	0	0	0	612	511	3	0	40	24	
3	0	0	0	0	597	513	3	0	40	24	
4	0	0	0	0	600	514	4	0	40	24	
5	0	0	0	0	600	514	3	1018	40	24	
6	0	0	0	0	586	512	2	1018	40	24	
7	0	0	0	0	556	512	1	1018	40	24	
8	0	0	0	0	504	511	3	1019	40	24	
9	0	0	0	0	450	510	1	1019	40	24	
10	0	0	0	0	430	508	2	1018	40	24	
11	0	0	0	0	411	509	1	1018	40	24	
12	0	0	0	0	403	504	1	1018	40	24	
13	0	0	0	0	390	504	2	348	40	24	
14	0	0	0	0	345	503	0	0	40	24	
15	0	0	0	0	392	502	1	0	40	24	
0	0	0	0	0	438	504	2	0	40	24	
1	0	0	0	0	491	505	0	0	40	24	
2	0	0	0	0	543	509	3	0	40	24	
3	0	0	0	0	575	512	0	0	40	24	
4	0	0	0	0	588	514	4	0	40	24	
5	0	0	0	0	572	512	3	0	40	24	
6	0	0	0	0	592	513	2	1018	40	24	
7	0	0	0	0	600	512	3	1018	40	24	
8	0	0	0	0	582	513	2	1019	40	24	
9	0	0	0	0	556	510	3	1018	40	24	
10	0	0	0	0	553	512	3	1018	40	24	
11	0	0	0	0	562	511	0	1018	40	24	
12	0	0	0	0	583	509	3	1019	40	24	
13	0	0	0	0	552	508	0	1019	40	24	
14	0	0	0	0	527	507	2	295	40	24	
15	0	0	0	0	506	504	1	0	40	24	
0	0	0	0	0	491	503	2	0	40	24	
1	0	0	0	0	486	506	2	0	40	24	
2	0	0	0	0	455	507	1	0	40	24	
3	0	0	0	0	427	510	0	0	40	24	
4	0	0	0	0	444	514	4	0	40	24	
5	0	0	0	0	466	514	1	0	40	24	
6	0	0	0	0	481	512	3	461	40	24	
7	0	0	0	0	500	512	2	1018	40	24	
8	0	0	0	0	525	511	3	1019	40	24	
9	0	0	0	0	502	511	3	1018	40	24	
10	0	0	0	0	485	510	1	1018	40	24	
11	0	0	0	0	492	510	2	1018	40	24	
12	0	0	0	0	516	509	1	1018	40	24	
13	0	0	0	0	527	508	0	1018	40	24	
14	0	0	0	0	535	507	2	1018	40	24	
15	0	0	0	0	561	505	0	0	40	24	
0	0	0	0	0	588	504	2	0	40	24	
1	0	0	0	0	609	502	2	0	40	24	
2	0	0	0	0	592	504	0	0	40	24	
3	0	0	0	0	566	506	2	0	40	24	
4	0	0	0	0	532	508	3	0	40	24	
5	0	0	0	0	514	512	3	0	40	24	
6	0	0	0	0	488	513	3	0	40	24	
7	0	0	0	0	454	513	2	1018	40	24	
8	0	0	0	0	414	512	4	1018	40	24	
9	0	0	0	0	441	511	1	1018	40	24	
10	0	0	0	0	448	510	3	1018	40	24	
11	0	0	0	0	451	512	1	1018	40	24	
12	0	0	0	0	461	512	3	1019	40	24	
13	0	0	0	0	475	510	2	1018	40	24	
14	0	0	0	0	504	507	0	1018	40	24	
15	0	0	0	0	560	507	1	1017	40	24	
0	0	0	0	0	601	503	2	0	40	24	
1	0	0	0	0	599	503	0	0	40	24	
2	0	0	0	0	579	507	2	0	40	24	
3	0	0	0	0	550	510	0	0	40	24	
4	0	0	0	0	497	513	3	0	40	24	
5	0	0	0	0	440	515	1	0	40	24	
6	0	0	0	0	444	515	3	0	40	24	
7	0	0	0	0	508	518	3	0	40	24	
8	0	0	0	0	500	517	4	1019	39	24	
9	0	0	0	0	458	513	3	1018	40	24	
10	0	0	0	0	496	512	1	1018	40	24	
11	0	0	0	0	553	514	2	1018	40	24	
12	0	0	0	0	578	513	3	1018	40	24	
13	0	0	0	0	577	511	1	1018	40	24	
14	0	0	0	0	547	510	2	1019	40	24	
15	0	0	0	0	505	507	0	398	40	24	
0	0	0	0	0	494	503	2	0	40	24	
1	0	0	0	0	499	504	0	0	40	24	
2	0	0	0	0	490	504	2	0	40	24	
3	0	0	0	0	449	507	0	0	40	24	
4	0	0	0	0	451	509	3	0	40	24	
5	0	0	0	0	499	511	3	0	40	24	
6	0	0	0	0	519	514	1	0	40	24	
7	0	0	0	0	527	515	3	0	40	24	
8	0	0	0	0	532	516	3	708	40	24	
9	0	0	0	0	542	513	1	1019	40	24	
10	0	0	0	0	541	512	3	1018	40	24	
11	0	0	0	0	526	511	1	1018	40	24	
12	0	0	0	0	517	511	2	1019	40	24	
13	0	0	0	0	525	511	3	1019	40	24	
14	0	0	0	0	530	509	0	1019	40	24	
15	0	0	0	0	514	507	2	1018	40	24	
0	0	0	0	0	551	506	2	1019	40	24	
1	0	0	0	0	584	501	2	0	40	24	
2	0	0	0	0	590	501	1	0	40	24	
3	0	0	0	0	567	503	0	0	40	24	
4	0	0	0	0	509	506	3	0	40	24	
5	0	0	0	0	494	508	1	0	40	24	
6	0	0	0	0	501	511	3	0	40	24	
7	0	0	0	0	491	513	2	0	40	24	
8	0	0	0	0	455	513	1	0	40	24	
9	0	0	0	0	424	514	4	1018	40	24	
10	0	0	0	0	440	515	2	1018	40	24	
11	0	0	0	0	423	512	3	1018	40	24	
12	0	0	0	0	415	515	3	1019	40	24	
13	0	0	0	0	444	513	2	1019	40	24	
14	0	0	0	0	489	513	0	1018	40	24	
15	0	0	0	0	536	513	2	1018	40	24	
0	0	0	0	0	540	512	1	1019	40	24	
1	0	0	0	0	568	508	0	639	40	24	
2	0	0	0	0	579	506	1	0	40	24	
3	0	0	0	0	566	507	0	0	40	24	
4	0	0	0	0	543	508	2	0	40	24	
5	0	0	0	0	540	510	0	0	40	24	
6	0	0	0	0	548	513	3	0	40	24	
7	0	0	0	0	539	515	0	0	40	24	
8	0	0	0	0	505	516	3	0	40	24	
9	0	0	0	0	504	515	2	0	40	24	
10	0	0	0	0	525	513	3	1018	40	24	
11	0	0	0	0	531	513	2	1018	40	24	
12	0	0	0	0	507	512	3	1018	40	24	
13	0	0	0	0	508	513	1	1018	40	24	
14	0	0	0	0	535	512	3	1018	40	25	
15	0	0	0	0	556	512	1	1018	40	24	
0	0	0	0	0	499	513	3	1019	40	25	
1	0	0	0	0	417	509	1	1019	40	25	
2	0	0	0	0	465	507	0	1018	40	25	
3	0	0	0	0	479	505	1	0	40	25	
4	0	0	0	0	501	503	3	0	40	25	
5	0	0	0	0	513	507	2	0	40	25	
6	0	0	0	0	519	511	0	0	40	25	
7	0	0	0	0	507	514	2	0	40	25	
8	0	0	0	0	478	515	2	0	40	25	
9	0	0	0	0	497	518	2	0	40	25	
10	0	0	0	0	541	518	4	1018	40	25	
11	0	0	0	0	555	516	1	1018	40	25	
12	0	0	0	0	566	515	4	1019	40	25	
13	0	0	0	0	547	514	2	1018	40	25	
14	0	0	0	0	475	513	3	1018	40	25	
15	0	0	0	0	472	511	3	1018	40	25	
0	0	0	0	0	519	509	3	1019	40	25	
1	0	0	0	0	508	508	2	1018	40	25	
2	0	0	0	0	498	507	0	1018	40	25	
3	0	0	0	0	523	505	1	1017	40	25	
4	0	0	0	0	539	504	1	0	40	25	
5	0	0	0	0	531	504	0	0	40	25	
6	0	0	0	0	469	507	2	0	40	25	
7	0	0	0	0	455	511	0	0	40	25	
8	0	0	0	0	499	512	2	0	40	25	
9	0	0	0	0	554	513	2	0	40	25	
10	0	0	0	0	552	514	3	0	40	25	
11	0	0	0	0	539	515	3	1018	40	25	
12	0	0	0	0	509	514	3	1018	40	25	
13	0	0	0	0	487	511	3	1018	40	25	
14	0	0	0	0	505	510	1	1018	40	25	
15	0	0	0	0	540	512	2	1018	40	25	
0	0	0	0	0	540	513	2	1019	40	25	
1	0	0	0	0	512	510	0	1018	40	25	
2	0	0	0	0	508	509	2	1018	40	25	
3	0	0	0	0	519	509	0	0	40	25	
4	0	0	0	0	506	508	3	0	40	25	
5	0	0	0	0	485	504	2	0	40	25	
6	0	0	0	0	517	506	0	0	40	25	
7	0	0	0	0	588	507	2	0	40	25	
8	0	0	0	0	596	510	3	0	40	25	
9	0	0	0	0	615	513	1	0	40	25	
10	0	0	0	0	566	516	4	0	40	25	
11	0	0	0	0	508	518	1	0	40	25	
12	0	0	0	0	446	518	4	1019	40	25	
13	0	0	0	0	387	515	3	1018	40	25	
14	0	0	0	0	377	515	0	1018	40	25	
15	0	0	0	0	380	514	2	1018	40	25	
0	0	0	0	0	340	515	3	1019	40	25	
1	0	0	0	0	389	512	0	1019	40	25	
2	0	0	0	0	508	512	2	1018	40	25	
3	0	0	0	0	581	508	0	1018	40	25	
4	0	0	0	0	599	505	3	0	40	25	
5	0	0	0	0	585	504	2	0	40	25	
6	0	0	0	0	591	505	0	0	40	25	
7	0	0	0	0	577	507	1	0	40	25	
8	0	0	0	0	552	508	0	0	40	25	
9	0	0	0	0	525	509	1	0	40	25	
10	0	0	0	0	496	511	3	0	40	25	
11	0	0	0	0	489	513	2	0	40	25	
12	0	0	0	0	508	511	4	919	40	25	
13	0	0	0	0	527	512	3	1019	40	25	
14	0	0	0	0	571	510	2	1018	40	25	
15	0	0	0	0	578	511	1	1018	40	25	
0	0	0	0	0	575	510	2	1018	40	25	
1	0	0	0	0	588	510	2	1018	40	25	
2	0	0	0	0	561	511	2	1018	40	25	
3	0	0	0	0	529	510	2	1018	40	25	
4	0	0	0	0	531	508	2	1019	40	25	
5	0	0	0	0	531	504	1	0	40	25	
6	0	0	0	0	494	502	1	0	40	25	
7	0	0	0	0	460	502	0	0	40	25	
8	0	0	0	0	444	506	3	0	40	25	
9	0	0	0	0	423	510	2	0	40	25	
10	0	0	0	0	406	513	1	0	40	25	
11	0	0	0	0	344	514	3	0	40	25	
12	0	0	0	0	361	518	3	0	40	25	
13	0	0	0	0	462	518	3	1018	40	25	
14	0	0	0	0	531	516	4	1018	40	25	
15	0	0	0	0	562	514	1	1018	40	25	
0	0	0	0	0	581	514	4	1019	40	25	
1	0	0	0	0	573	513	1	1019	40	25	
2	0	0	0	0	543	512	3	1018	40	25	
3	0	0	0	0	524	511	2	1018	40	25	
4	0	0	0	0	542	511	3	1019	40	25	
5	0	0	0	0	554	507	2	1018	40	25	
6	0	0	0	0	562	508	0	0	40	25	
7	0	0	0	0	569	505	1	0	40	25	
8	0	0	0	0	556	507	1	0	40	25	
9	0	0	0	0	529	509	0	0	40	25	
10	0	0	0	0	521	512	3	0	40	25	
11	0	0	0	0	512	514	0	0	40	25	
12	0	0	0	0	511	516	4	0	40	25	
13	0	0	0	0	511	516	2	0	40	25	
14	0	0	0	0	501	515	3	1018	40	25	
15	0	0	0	0	485	514	3	1018	40	25	
0	0	0	0	0	493	512	3	1019	40	25	
1	0	0	0	0	503	515	3	1018	40	25	
2	0	0	0	0	465	515	1	1018	40	25	
3	0	0	0	0	462	512	2	1018	40	25	
4	0	0	0	0	494	510	2	1019	40	25	
5	0	0	0	0	530	508	0	1019	40	25	
6	0	0	0	0	538	505	1	0	40	25	
7	0	0	0	0	540	504	0	0	40	25	
8	0	0	0	0	535	504	3	0	40	25	
9	0	0	0	0	520	506	2	0	40	25	
10	0	0	0	0	512	511	0	0	40	25	
11	0	0	0	0	502	515	2	0	40	25	
12	0	0	0	0	517	515	3	0	40	26	
13	0	0	0	0	502	514	3	0	40	25	
14	0	0	0	0	502	514	3	0	40	25	
15	0	0	0	0	508	514	1	1018	40	25	
0	0	0	0	0	519	512	4	1019	40	25	
1	0	0	0	0	513	512	1	1018	40	25	
2	0	0	0	0	514	513	3	1018	40	25	
3	0	0	0	0	510	513	2	1018	40	25	
4	0	0	0	0	516	511	2	1019	40	25	
5	0	0	0	0	521	508	1	1018	40	25	
6	0	0	0	0	526	506	0	124	40	25	
7	0	0	0	0	526	504	1	0	40	25	
8	0	0	0	0	524	502	1	0	40	25	
9	0	0	0	0	526	503	0	0	40	25	
10	0	0	0	0	543	507	2	0	40	25	
11	0	0	0	0	636	510	0	0	40	25	
12	0	0	0	0	635	510	3	0	40	25	
13	0	0	0	0	576	512	2	0	40	25	
14	0	0	0	0	518	512	2	0	40	25	
15	0	0	0	0	468	512	4	1018	40	25	
0	0	0	0	0	365	511	5	1019	40	26	
1	0	0	0	0	289	507	3	1018	40	25	
2	0	0	0	0	331	506	2	1018	40	25	
3	0	0	0	0	426	507	0	1018	40	25	
4	0	0	0	0	484	505	1	1019	40	25	
5	0	0	0	0	516	506	0	1018	40	25	
6	0	0	0	0	540	505	2	1018	40	25	
7	0	0	0	0	552	502	1	1018	40	25	
8	0	0	0	0	565	500	0	0	40	25	
9	0	0	0	0	563	499	1	0	40	25	
10	0	0	0	0	547	502	0	0	40	25	
11	0	0	0	0	536	504	2	0	40	25	
12	0	0	0	0	528	508	2	0	40	26	
13	0	0	0	0	528	510	0	0	40	25	
14	0	0	0	0	525	512	3	0	40	25	
15	0	0	0	0	524	513	2	0	40	25	
0	0	0	0	0	522	514	3	1019	40	25	
1	0	0	0	0	521	511	2	1019	40	25	
2	0	0	0	0	519	511	3	1019	40	25	
3	0	0	0	0	519	510	1	1018	40	25	
4	0	0	0	0	529	511	3	1019	40	26	
5	0	0	0	0	529	511	3	1018	40	25	
6	0	0	0	0	522	508	0	1018	40	25	
7	0	0	0	0	521	507	1	621	40	25	
8	0	0	0	0	527	505	1	0	40	25	
9	0	0	0	0	518	504	2	0	40	25	
10	0	0	0	0	504	504	1	0	40	25	
11	0	0	0	0	502	507	0	0	40	25	
12	0	0	0	0	518	510	2	0	40	25	
13	0	0	0	0	537	512	1	0	40	25	
14	0	0	0	0	536	513	3	0	40	25	
15	0	0	0	0	535	514	2	0	40	25	
0	0	0	0	0	513	514	4	0	40	25	
1	0	0	0	0	502	515	3	1019	40	25	
2	0	0	0	0	480	514	2	1018	40	25	
3	0	0	0	0	423	513	3	1018	40	25	
4	0	0	0	0	449	510	3	1019	40	25	
5	0	0	0	0	463	511	3	1019	40	25	
6	0	0	0	0	493	510	1	1018	40	25	
7	0	0	0	0	521	507	2	1018	40	25	
8	0	0	0	0	541	503	2	1017	40	25	
9	0	0	0	0	546	502	0	0	40	25	
10	0	0	0	0	538	498	2	0	40	25	
11	0	0	0	0	532	500	0	0	40	25	
12	0	0	0	0	524	504	1	0	40	25	
13	0	0	0	0	517	509	1	0	40	25	
14	0	0	0	0	508	514	3	0	40	25	
15	0	0	0	0	497	514	3	0	40	25	
0	0	0	0	0	506	515	4	0	40	25	
1	0	0	0	0	509	512	3	1018	40	25	
2	0	0	0	0	514	515	2	1018	40	25	
3	0	0	0	0	520	515	3	1018	40	25	
4	0	0	0	0	520	514	2	1019	40	25	
5	0	0	0	0	519	513	1	1018	40	25	
6	0	0	0	0	511	513	3	1018	40	25	
7	0	0	0	0	516	513	0	1018	40	25	
8	0	0	0	0	523	511	3	1019	40	25	
9	0	0	0	0	524	507	0	1018	40	25	
10	0	0	0	0	524	504	1	0	40	25	
11	0	0	0	0	518	503	1	0	40	25	
12	0	0	0	0	516	505	2	0	40	25	
13	0	0	0	0	511	509	2	0	40	25	
14	0	0	0	0	504	514	1	0	40	25	
15	0	0	0	0	504	514	2	0	40	25	
0	0	0	0	0	510	514	3	0	40	25	
1	0	0	0	0	511	513	2	0	40	25	
2	0	0	0	0	517	513	4	1018	40	25	
3	0	0	0	0	518	513	1	1018	40	25	
4	0	0	0	0	510	512	3	1018	40	25	
5	0	0	0	0	492	513	1	1018	40	25	
6	0	0	0	0	502	514	3	1018	40	25	
7	0	0	0	0	504	513	1	1018	40	25	
8	0	0	0	0	508	509	1	1018	40	25	
9	0	0	0	0	507	505	1	1019	40	25	
10	0	0	0	0	518	503	0	0	40	25	
11	0	0	0	0	525	502	1	0	40	25	
12	0	0	0	0	534	500	2	0	40	25	
13	0	0	0	0	527	505	0	0	40	25	
14	0	0	0	0	517	510	2	0	40	25	
15	0	0	0	0	504	513	0	0	40	25	
0	0	0	0	0	485	512	3	0	40	25	
1	0	0	0	0	495	512	2	0	40	25	
2	0	0	0	0	494	514	4	1018	40	25	
3	0	0	0	0	486	513	3	1018	40	25	
4	0	0	0	0	510	509	3	1018	40	25	
5	0	0	0	0	518	511	3	1018	40	25	
6	0	0	0	0	519	513	1	1018	40	25	
7	0	0	0	0	520	513	3	1018	40	25	
8	0	0	0	0	520	509	1	1019	40	25	
9	0	0	0	0	523	507	0	1018	40	25	
10	0	0	0	0	528	505	2	1018	40	25	
11	0	0	0	0	525	503	0	1018	40	25	
12	0	0	0	0	524	501	1	0	40	25	
13	0	0	0	0	525	503	0	0	40	25	
14	0	0	0	0	518	506	2	0	40	25	
15	0	0	0	0	507	508	2	0	40	25	
0	0	0	0	0	498	508	2	0	40	25	
1	0	0	0	0	499	510	3	0	40	25	
2	0	0	0	0	508	513	1	0	40	25	
3	0	0	0	0	515	513	3	1018	40	25	
4	0	0	0	0	519	513	4	1019	40	25	
5	0	0	0	0	531	511	2	1018	40	25	
6	0	0	0	0	537	512	3	1018	40	25	
7	0	0	0	0	529	511	1	1018	40	25	
8	0	0	0	0	524	510	3	1019	40	25	
9	0	0	0	0	509	508	0	1018	40	25	
10	0	0	0	0	517	506	2	1019	40	25	
11	0	0	0	0	525	505	0	375	40	25	
12	0	0	0	0	518	503	0	0	40	25	
13	0	0	0	0	512	502	1	0	40	25	
14	0	0	0	0	533	504	0	0	40	25	
15	0	0	0	0	539	508	2	0	40	25	
0	0	0	0	0	512	511	2	0	40	25	
1	0	0	0	0	484	514	2	0	40	25	
2	0	0	0	0	467	514	2	0	40	25	
3	0	0	0	0	465	515	3	0	40	25	
4	0	0	0	0	473	514	4	1019	40	25	
5	0	0	0	0	446	512	1	1018	40	25	
6	0	0	0	0	467	514	3	1019	40	25	
7	0	0	0	0	513	514	1	1018	40	25	
8	0	0	0	0	523	515	3	1019	40	25	
9	0	0	0	0	527	512	3	1018	40	25	
10	0	0	0	0	532	510	1	1018	40	25	
11	0	0	0	0	539	507	1	1018	40	25	
12	0	0	0	0	540	505	2	1017	40	25	
13	0	0	0	0	519	504	1	0	40	25	
14	0	0	0	0	530	503	0	0	40	25	
15	0	0	0	0	530	505	0	0	40	25	
0	0	0	0	0	518	505	2	0	40	25	
1	0	0	0	0	505	511	1	0	40	25	
2	0	0	0	0	511	515	3	0	40	25	
3	0	0	0	0	512	516	1	0	40	25	
4	0	0	0	0	512	516	4	993	40	25	
5	0	0	0	0	528	515	4	1019	40	25	
6	0	0	0	0	544	513	1	1018	40	25	
7	0	0	0	0	533	513	3	1018	40	25	
8	0	0	0	0	533	512	3	1019	40	25	
9	0	0	0	0	529	513	3	1018	40	25	
10	0	0	0	0	526	512	2	1019	40	25	
11	0	0	0	0	488	510	0	1018	40	25	
12	0	0	0	0	497	508	3	1019	40	25	
13	0	0	0	0	533	502	0	647	40	25	
14	0	0	0	0	518	501	2	0	40	25	
15	0	0	0	0	510	501	0	0	40	25	
0	0	0	0	0	496	505	1	0	40	25	
1	0	0	0	0	484	509	2	0	40	25	
2	0	0	0	0	467	513	0	0	40	25	
3	0	0	0	0	443	516	3	0	40	25	
4	0	0	0	0	478	518	3	0	40	25	
5	0	0	0	0	508	516	3	1018	40	25	
6	0	0	0	0	529	515	4	1018	40	25	
7	0	0	0	0	535	515	1	1018	40	25	
8	0	0	0	0	532	517	4	1019	40	25	
9	0	0	0	0	527	516	3	1019	40	25	
10	0	0	0	0	515	513	0	1018	40	25	
11	0	0	0	0	519	513	2	1018	40	25	
12	0	0	0	0	525	510	1	1019	40	25	
13	0	0	0	0	529	507	0	1018	40	25	
14	0	0	0	0	528	505	1	0	40	25	
15	0	0	0	0	526	503	0	0	40	25	
0	0	0	0	0	520	504	0	0	40	25	
1	0	0	0	0	514	508	2	0	40	25	
2	0	0	0	0	507	512	0	0	40	25	
3	0	0	0	0	506	514	2	0	40	25	
4	0	0	0	0	506	515	3	0	40	25	
5	0	0	0	0	508	516	1	0	40	25	
6	0	0	0	0	509	516	3	1018	40	25	
7	0	0	0	0	516	515	2	1018	40	25	
8	0	0	0	0	517	512	2	1019	40	25	
9	0	0	0	0	512	512	3	1018	40	25	
10	0	0	0	0	509	513	1	1018	40	25	
11	0	0	0	0	517	512	2	1018	40	25	
12	0	0	0	0	532	513	2	1019	40	25	
13	0	0	0	0	524	508	0	1018	40	25	
14	0	0	0	0	522	505	0	0	40	25	
15	0	0	0	0	519	504	1	0	40	25	
0	0	0	0	0	512	503	1	0	40	25	
1	0	0	0	0	496	505	2	0	40	25	
2	0	0	0	0	477	508	1	0	40	25	
3	0	0	0	0	480	512	2	0	40	25	
4	0	0	0	0	497	516	3	0	40	25	
5	0	0	0	0	507	516	3	0	40	25	
6	0	0	0	0	514	518	2	0	40	25	
7	0	0	0	0	517	516	3	1018	40	25	
8	0	0	0	0	523	516	3	1019	40	25	
9	0	0	0	0	516	516	3	1018	40	25	
10	0	0	0	0	516	516	1	1018	40	25	
11	0	0	0	0	518	516	2	1018	40	25	
12	0	0	0	0	519	514	3	1019	40	25	
13	0	0	0	0	518	512	2	1018	40	25	
14	0	0	0	0	520	509	0	1018	40	25	
15	0	0	0	0	524	505	0	0	40	25	
0	0	0	0	0	524	502	1	0	40	25	
1	0	0	0	0	521	502	1	0	40	25	
2	0	0	0	0	511	505	0	0	40	25	
3	0	0	0	0	504	510	2	0	40	25	
4	0	0	0	0	499	513	3	0	40	25	
5	0	0	0	0	497	515	3	0	40	25	
6	0	0	0	0	505	514	2	0	40	25	
7	0	0	0	0	510	515	3	987	40	25	
8	0	0	0	0	508	515	3	1018	40	25	
9	0	0	0	0	512	512	3	1018	40	25	
10	0	0	0	0	511	513	2	1018	40	25	
11	0	0	0	0	508	514	3	1018	40	25	
12	0	0	0	0	517	512	3	1019	40	25	
13	0	0	0	0	521	510	2	1018	40	25	
14	0	0	0	0	521	508	1	1018	40	25	
15	0	0	0	0	519	506	0	58	40	25	
0	0	0	0	0	520	507	1	0	40	25	
1	0	0	0	0	519	506	0	0	40	25	
2	0	0	0	0	513	508	1	0	40	25	
3	0	0	0	0	508	512	0	0	40	25	
4	0	0	0	0	504	515	1	0	40	25	
5	0	0	0	0	501	517	3	0	40	25	
6	0	0	0	0	503	519	1	0	40	25	
7	0	0	0	0	507	519	3	0	40	25	
8	0	0	0	0	513	519	4	1019	40	25	
9	0	0	0	0	516	515	3	1019	40	25	
10	0	0	0	0	514	515	2	1018	40	25	
11	0	0	0	0	511	515	1	1018	40	25	
12	0	0	0	0	515	515	4	1019	40	25	
13	0	0	0	0	520	514	1	1018	40	25	
14	0	0	0	0	520	511	2	1018	40	25	
15	0	0	0	0	519	510	0	1018	40	25	
0	0	0	0	0	521	507	3	1019	40	25	
1	0	0	0	0	521	504	1	0	40	25	
2	0	0	0	0	518	504	0	0	40	25	
3	0	0	0	0	509	507	2	0	40	25	
4	0	0	0	0	504	509	2	0	40	25	
5	0	0	0	0	506	512	2	0	40	25	
6	0	0	0	0	504	516	2	0	40	25	
7	0	0	0	0	505	517	2	0	40	25	
8	0	0	0	0	507	517	4	0	40	25	
9	0	0	0	0	509	516	2	1019	40	25	
10	0	0	0	0	517	512	1	1018	40	25	
11	0	0	0	0	518	514	3	1018	40	25	
12	0	0	0	0	515	515	3	1019	40	25	
13	0	0	0	0	512	513	3	1018	40	25	
14	0	0	0	0	515	513	1	1018	40	25	
15	0	0	0	0	518	511	0	1018	40	25	
0	0	0	0	0	514	509	2	1019	40	25	
1	0	0	0	0	511	506	0	0	40	25	
2	0	0	0	0	520	505	2	0	40	25	
3	0	0	0	0	522	506	0	0	40	25	
4	0	0	0	0	509	507	3	0	40	25	
5	0	0	0	0	509	508	2	0	40	25	
6	0	0	0	0	508	511	1	0	40	25	
7	0	0	0	0	509	513	3	0	40	25	
8	0	0	0	0	510	514	3	0	40	25	
9	0	0	0	0	507	512	3	1018	40	25	
10	0	0	0	0	512	513	3	1018	40	25	
11	0	0	0	0	523	513	2	1018	40	25	
12	0	0	0	0	518	512	4	1019	40	25	
13	0	0	0	0	514	511	1	1019	40	25	
14	0	0	0	0	508	511	3	1018	40	25	
15	0	0	0	0	512	508	1	1018	40	25	
0	0	0	0	0	515	504	2	1018	40	25	
1	0	0	0	0	508	504	2	1018	40	25	
2	0	0	0	0	517	503	0	0	40	25	
3	0	0	0	0	519	500	1	0	40	25	
4	0	0	0	0	515	504	1	0	40	25	
5	0	0	0	0	514	506	0	0	40	25	
6	0	0	0	0	508	509	3	0	40	25	
7	0	0	0	0	507	512	0	0	40	25	
8	0	0	0	0	509	513	3	0	40	25	
9	0	0	0	0	508	514	3	0	40	25	
10	0	0	0	0	510	515	2	1018	40	25	
11	0	0	0	0	514	512	3	1018	40	25	
12	0	0	0	0	514	513	3	1018	40	25	
13	0	0	0	0	519	513	1	1018	40	25	
14	0	0	0	0	515	515	3	1018	40	25	
15	0	0	0	0	512	512	1	1018	40	25	
0	0	0	0	0	514	511	3	1019	40	25	
1	0	0	0	0	519	507	2	1018	40	25	
2	0	0	0	0	524	505	0	1018	40	25	
3	0	0	0	0	523	504	1	0	40	25	
4	0	0	0	0	525	503	1	0	40	25	
5	0	0	0	0	543	505	0	0	40	25	
6	0	0	0	0	537	508	2	0	40	25	
7	0	0	0	0	517	511	0	0	40	25	
8	0	0	0	0	493	514	3	0	40	25	
9	0	0	0	0	481	513	2	0	40	25	
10	0	0	0	0	477	513	3	0	40	25	
11	0	0	0	0	467	513	3	1018	40	25	
12	0	0	0	0	472	511	3	1018	40	25	
13	0	0	0	0	497	511	3	1018	40	25	
14	0	0	0	0	512	511	1	1019	40	25	
15	0	0	0	0	521	509	2	1018	40	25	
0	0	0	0	0	527	509	2	1019	40	25	
1	0	0	0	0	529	507	0	1018	40	25	
2	0	0	0	0	536	506	2	1018	40	25	
3	0	0	0	0	532	504	0	0	40	25	
4	0	0	0	0	529	501	2	0	40	25	
5	0	0	0	0	526	500	0	0	40	25	
6	0	0	0	0	521	503	2	0	40	25	
7	0	0	0	0	511	507	2	0	40	25	
8	0	0	0	0	507	510	3	0	40	25	
9	0	0	0	0	507	513	3	0	40	25	
10	0	0	0	0	508	515	1	0	40	25	
11	0	0	0	0	508	515	3	518	40	25	
12	0	0	0	0	499	516	3	1019	40	25	
13	0	0	0	0	503	513	1	1018	40	25	
14	0	0	0	0	506	514	3	1018	40	25	
15	0	0	0	0	511	514	0	1018	40	25	
0	0	0	0	0	520	511	1	1018	40	25	
1	0	0	0	0	516	508	2	1018	40	25	
2	0	0	0	0	524	508	0	1018	40	25	
3	0	0	0	0	527	507	1	711	40	25	
4	0	0	0	0	524	505	1	0	40	25	
5	0	0	0	0	524	502	1	0	40	25	
6	0	0	0	0	516	504	1	0	40	25	
7	0	0	0	0	516	507	0	0	40	25	
8	0	0	0	0	510	512	3	0	40	25	
9	0	0	0	0	509	513	1	0	40	25	
10	0	0	0	0	505	515	3	0	40	25	
11	0	0	0	0	505	516	2	0	40	25	
12	0	0	0	0	508	515	4	1019	40	25	
13	0	0	0	0	509	515	4	1019	40	25	
14	0	0	0	0	508	515	1	1018	40	25	
15	0	0	0	0	510	514	2	1018	40	25	
0	0	0	0	0	513	513	3	1019	40	25	
1	0	0	0	0	517	512	3	1018	40	25	
2	0	0	0	0	515	508	2	1019	40	25	
3	0	0	0	0	517	505	0	1018	40	25	
4	0	0	0	0	519	503	2	0	40	25	
5	0	0	0	0	525	501	0	0	40	25	
6	0	0	0	0	525	502	1	0	40	25	
7	0	0	0	0	516	504	0	0	40	25	
8	0	0	0	0	512	508	3	0	40	25	
9	0	0	0	0	504	512	2	0	40	25	
10	0	0	0	0	497	515	2	0	40	25	
11	0	0	0	0	501	515	4	0	40	25	
12	0	0	0	0	507	513	4	0	40	25	
13	0	0	0	0	511	511	3	1019	40	25	
14	0	0	0	0	516	507	2	1018	40	25	
15	0	0	0	0	514	510	1	1018	40	25	
0	0	0	0	0	515	511	3	1019	40	25	
1	0	0	0	0	518	510	1	1018	40	25	
2	0	0	0	0	518	510	1	1019	40	25	
3	0	0	0	0	516	509	1	1018	40	25	
4	0	0	0	0	523	505	2	1019	40	25	
5	0	0	0	0	523	502	1	0	40	25	
6	0	0	0	0	515	498	0	0	40	25	
7	0	0	0	0	518	501	0	0	40	25	
8	0	0	0	0	514	504	2	0	40	25	
9	0	0	0	0	513	508	1	0	40	25	
10	0	0	0	0	511	511	3	0	40	25	
11	0	0	0	0	506	514	3	0	40	25	
12	0	0	0	0	508	513	2	0	40	25	
13	0	0	0	0	506	513	3	1016	40	25	
14	0	0	0	0	513	514	4	1018	40	25	
15	0	0	0	0	511	512	1	1018	40	25	
0	0	0	0	0	511	512	3	1019	39	25	
1	0	0	0	0	514	511	3	1019	40	25	
2	0	0	0	0	514	508	0	1018	40	25	
3	0	0	0	0	518	508	2	1018	40	25	
4	0	0	0	0	518	504	1	1018	40	25	
5	0	0	0	0	514	502	0	297	40	25	
6	0	0	0	0	522	500	1	0	40	25	
7	0	0	0	0	520	499	0	0	40	25	
8	0	0	0	0	519	505	3	0	40	25	
9	0	0	0	0	509	506	1	0	40	25	
10	0	0	0	0	507	511	3	0	40	25	
11	0	0	0	0	506	516	3	0	40	25	
12	0	0	0	0	501	515	3	0	40	25	
13	0	0	0	0	504	516	3	0	40	25	
14	0	0	0	0	511	515	3	1018	40	25	
15	0	0	0	0	515	514	3	1018	40	25	
0	0	0	0	0	516	513	2	1019	40	25	
1	0	0	0	0	516	514	0	1018	40	25	
2	0	0	0	0	513	515	3	1018	40	25	
3	0	0	0	0	511	512	0	1018	40	25	
4	0	0	0	0	513	508	2	1019	40	25	
5	0	0	0	0	516	506	2	1018	40	25	
6	0	0	0	0	520	504	0	160	40	25	
7	0	0	0	0	522	504	1	0	40	25	
8	0	0	0	0	514	503	1	0	40	25	
9	0	0	0	0	511	503	2	0	40	25	
10	0	0	0	0	512	507	2	0	40	25	
11	0	0	0	0	512	511	0	0	40	25	
12	0	0	0	0	507	514	4	0	40	25	
13	0	0	0	0	508	512	2	0	40	25	
14	0	0	0	0	512	513	2	0	40	25	
15	0	0	0	0	510	512	4	1018	40	25	
0	0	0	0	0	515	512	3	1018	40	25	
1	0	0	0	0	512	514	3	1018	40	25	
2	0	0	0	0	510	515	2	1018	40	25	
3	0	0	0	0	516	514	1	1018	40	25	
4	0	0	0	0	520	510	2	1018	40	25	
5	0	0	0	0	525	509	0	1018	40	25	
6	0	0	0	0	518	508	2	1018	40	25	
7	0	0	0	0	526	505	0	206	40	25	
8	0	0	0	0	521	500	2	0	40	25	
9	0	0	0	0	508	501	2	0	40	25	
10	0	0	0	0	497	504	0	0	40	25	
11	0	0	0	0	492	506	2	0	40	25	
12	0	0	0	0	495	510	2	0	40	25	
13	0	0	0	0	492	511	1	0	40	25	
14	0	0	0	0	506	512	3	0	40	25	
15	0	0	0	0	514	515	1	766	40	25	
0	0	0	0	0	514	516	5	1019	40	25	
1	0	0	0	0	518	515	3	1018	40	25	
2	0	0	0	0	518	516	1	1018	40	25	
3	0	0	0	0	519	515	3	1018	40	25	
4	0	0	0	0	524	513	3	1019	40	25	
5	0	0	0	0	523	512	2	1018	40	25	
6	0	0	0	0	531	509	1	1018	40	25	
7	0	0	0	0	534	507	0	1017	40	25	
8	0	0	0	0	532	502	0	0	40	25	
9	0	0	0	0	531	499	1	0	40	25	
10	0	0	0	0	519	502	2	0	40	25	
11	0	0	0	0	507	507	2	0	40	25	
12	0	0	0	0	488	512	3	0	40	25	
13	0	0	0	0	488	512	2	0	40	25	
14	0	0	0	0	491	514	2	0	40	25	
15	0	0	0	0	498	514	3	0	40	25	
0	0	0	0	0	510	512	3	1019	40	25	
1	0	0	0	0	517	510	1	1018	40	25	
2	0	0	0	0	519	509	3	1018	40	25	
3	0	0	0	0	513	509	1	1018	40	25	
4	0	0	0	0	512	510	4	1019	40	25	
5	0	0	0	0	514	509	3	1018	40	25	
6	0	0	0	0	517	507	1	1018	40	25	
7	0	0	0	0	521	505	1	1018	40	25	
8	0	0	0	0	526	501	1	1018	40	25	
9	0	0	0	0	532	500	0	0	40	25	
10	0	0	0	0	522	501	1	0	40	25	
11	0	0	0	0	510	503	0	0	40	25	
12	0	0	0	0	505	505	2	0	40	25	
13	0	0	0	0	500	510	3	0	40	25	
14	0	0	0	0	506	514	1	0	40	25	
15	0	0	0	0	511	516	3	0	40	25	
0	0	0	0	0	511	516	3	0	40	25	
1	0	0	0	0	516	517	1	1019	40	25	
2	0	0	0	0	519	515	3	1018	40	25	
3	0	0	0	0	519	514	1	1018	40	25	
4	0	0	0	0	516	514	4	1019	40	25	
5	0	0	0	0	514	511	3	1018	40	25	
6	0	0	0	0	510	512	1	1019	40	25	
7	0	0	0	0	511	509	0	1018	40	25	
8	0	0	0	0	522	508	3	1018	40	25	
9	0	0	0	0	525	503	1	0	40	25	
10	0	0	0	0	517	502	0	0	40	25	
11	0	0	0	0	519	504	1	0	40	25	
12	0	0	0	0	515	508	1	0	40	25	
13	0	0	0	0	511	509	0	0	40	25	
14	0	0	0	0	506	515	3	0	40	25	
15	0	0	0	0	496	516	1	0	40	25	
0	0	0	0	0	487	519	4	0	40	25	
1	0	0	0	0	492	519	2	873	40	25	
2	0	0	0	0	504	518	3	1018	40	25	
3	0	0	0	0	525	515	2	1018	40	25	
4	0	0	0	0	539	518	3	1019	40	25	
5	0	0	0	0	526	516	2	1019	40	25	
6	0	0	0	0	519	514	1	1018	40	25	
7	0	0	0	0	515	511	0	1018	40	25	
8	0	0	0	0	514	506	1	1018	40	25	
9	0	0	0	0	516	505	1	853	40	25	
10	0	0	0	0	503	504	0	0	40	25	
11	0	0	0	0	500	502	1	0	40	25	
12	0	0	0	0	509	504	2	0	40	25	
13	0	0	0	0	511	507	1	0	40	25	
14	0	0	0	0	496	511	3	0	40	25	
15	0	0	0	0	492	511	0	0	40	25	
0	0	0	0	0	502	513	4	0	40	25	
1	0	0	0	0	509	510	3	0	40	25	
2	0	0	0	0	515	511	2	1018	40	25	
3	0	0	0	0	521	510	3	1018	40	25	
4	0	0	0	0	519	507	1	1019	40	26	
5	0	0	0	0	515	508	1	1018	40	25	
6	0	0	0	0	515	508	3	1018	40	25	
7	0	0	0	0	518	507	3	1018	40	25	
8	0	0	0	0	517	507	2	1019	40	26	
9	0	0	0	0	521	503	2	1019	40	25	
10	0	0	0	0	519	503	2	724	40	25	
11	0	0	0	0	519	503	1	0	40	25	
12	0	0	0	0	518	504	2	0	40	25	
13	0	0	0	0	511	506	2	0	40	25	
14	0	0	0	0	511	510	0	0	40	25	
15	0	0	0	0	508	514	2	0	40	25	
0	0	0	0	0	508	515	2	0	39	26	
1	0	0	0	0	507	516	1	0	40	25	
2	0	0	0	0	511	518	3	0	40	25	
3	0	0	0	0	517	516	2	1018	40	25	
4	0	0	0	0	516	512	3	1019	40	25	
5	0	0	0	0	510	511	3	1018	40	25	
6	0	0	0	0	508	512	1	1018	40	25	
7	0	0	0	0	509	512	2	1018	40	25	
8	0	0	0	0	513	510	2	1019	40	26	
9	0	0	0	0	519	507	1	1018	40	25	
10	0	0	0	0	521	505	0	1018	40	25	
11	0	0	0	0	526	500	2	0	40	25	
12	0	0	0	0	524	500	0	0	40	26	
13	0	0	0	0	519	503	1	0	40	25	
14	0	0	0	0	504	505	2	0	40	25	
15	0	0	0	0	503	509	0	0	40	25	
0	0	0	0	0	503	514	3	0	39	25	
1	0	0	0	0	498	515	4	0	40	25	
2	0	0	0	0	509	517	1	0	40	25	
3	0	0	0	0	508	518	3	0	40	25	
4	0	0	0	0	500	517	4	1018	40	25	
5	0	0	0	0	508	515	1	1018	40	25	
6	0	0	0	0	512	514	3	1018	40	25	
7	0	0	0	0	518	513	1	1018	40	25	
8	0	0	0	0	523	513	3	1019	39	25	
9	0	0	0	0	530	511	2	1018	40	25	
10	0	0	0	0	522	509	1	1018	40	25	
11	0	0	0	0	522	507	0	0	40	25	
12	0	0	0	0	524	504	0	0	40	26	
13	0	0	0	0	514	503	0	0	40	25	
14	0	0	0	0	507	507	0	0	40	26	
15	0	0	0	0	503	510	2	0	40	25	
0	0	0	0	0	497	513	3	0	40	26	
1	0	0	0	0	496	515	1	0	40	25	
2	0	0	0	0	496	518	3	0	40	25	
3	0	0	0	0	497	519	2	0	40	25	
4	0	0	0	0	505	518	4	1018	40	25	
5	0	0	0	0	512	516	3	1018	40	25	
6	0	0	0	0	516	516	2	1018	40	25	
7	0	0	0	0	515	514	1	1018	40	25	
8	0	0	0	0	516	515	2	1019	40	26	
9	0	0	0	0	520	511	1	1018	40	25	
10	0	0	0	0	520	507	2	1018	40	25	
11	0	0	0	0	526	503	1	1018	40	25	
12	0	0	0	0	535	502	1	607	40	25	
13	0	0	0	0	528	502	1	0	40	25	
14	0	0	0	0	520	503	0	0	40	25	
15	0	0	0	0	516	506	2	0	40	25	
0	0	0	0	0	539	509	2	0	40	26	
1	0	0	0	0	539	511	1	0	40	25	
2	0	0	0	0	530	514	3	0	40	26	
3	0	0	0	0	511	515	1	0	40	25	
4	0	0	0	0	504	515	4	0	40	26	
5	0	0	0	0	499	517	4	1018	40	25	
6	0	0	0	0	501	515	1	1018	40	25	
7	0	0	0	0	495	515	3	1018	40	26	
8	0	0	0	0	493	514	3	1019	40	25	
9	0	0	0	0	484	514	1	1018	40	25	
10	0	0	0	0	481	512	2	1018	40	26	
11	0	0	0	0	485	510	0	1018	40	25	
12	0	0	0	0	497	507	2	1019	40	26	
13	0	0	0	0	503	505	2	0	40	25	
14	0	0	0	0	512	504	0	0	40	26	
15	0	0	0	0	524	504	1	0	40	25	
0	0	0	0	0	517	506	1	0	40	26	
1	0	0	0	0	506	509	1	0	40	26	
2	0	0	0	0	506	512	3	0	40	25	
3	0	0	0	0	511	514	0	0	40	26	
4	0	0	0	0	516	514	3	0	40	26	
5	0	0	0	0	525	515	4	1018	40	25	
6	0	0	0	0	530	516	2	1018	40	26	
7	0	0	0	0	527	516	3	1018	40	25	
8	0	0	0	0	522	515	3	1018	40	26	
9	0	0	0	0	514	518	1	1019	40	25	
10	0	0	0	0	517	516	3	1018	40	26	
11	0	0	0	0	511	515	0	1018	40	26	
12	0	0	0	0	496	508	2	1018	40	25	
13	0	0	0	0	494	505	2	1018	40	25	
14	0	0	0	0	512	504	0	0	40	25	
15	0	0	0	0	520	503	1	0	40	25	
0	0	0	0	0	522	506	2	0	40	26	
1	0	0	0	0	531	508	0	0	40	26	
2	0	0	0	0	518	511	3	0	40	25	
3	0	0	0	0	503	515	0	0	40	25	
4	0	0	0	0	503	517	4	0	40	26	
5	0	0	0	0	502	517	3	0	40	26	
6	0	0	0	0	503	516	2	1018	40	26	
7	0	0	0	0	495	513	4	1018	40	25	
8	0	0	0	0	487	512	3	1019	40	26	
9	0	0	0	0	501	512	3	1018	40	26	
10	0	0	0	0	509	513	2	1018	40	26	
11	0	0	0	0	520	510	0	1018	40	25	
12	0	0	0	0	518	509	1	1019	40	26	
13	0	0	0	0	519	507	0	1018	40	25	
14	0	0	0	0	526	506	2	0	40	26	
15	0	0	0	0	533	504	1	0	40	26	
0	0	0	0	0	539	503	1	0	39	26	
1	0	0	0	0	524	505	2	0	40	26	
2	0	0	0	0	511	510	1	0	40	26	
3	0	0	0	0	494	513	0	0	40	25	
4	0	0	0	0	495	515	2	0	40	26	
5	0	0	0	0	496	517	2	0	40	25	
6	0	0	0	0	501	518	4	0	40	25	
7	0	0	0	0	501	516	3	1018	40	25	
8	0	0	0	0	517	512	2	1019	40	26	
9	0	0	0	0	524	512	3	1018	40	26	
10	0	0	0	0	526	515	2	1018	40	26	
11	0	0	0	0	521	514	3	1018	40	25	
12	0	0	0	0	511	510	2	1018	40	26	
13	0	0	0	0	509	509	0	1018	40	25	
14	0	0	0	0	508	507	2	1018	40	26	
15	0	0	0	0	507	505	0	0	40	25	
0	0	0	0	0	511	503	0	0	40	26	
1	0	0	0	0	504	504	1	0	40	25	
2	0	0	0	0	499	505	0	0	40	25	
3	0	0	0	0	501	509	2	0	40	26	
4	0	0	0	0	497	511	3	0	40	26	
5	0	0	0	0	497	515	1	0	40	25	
6	0	0	0	0	501	516	3	0	40	26	
7	0	0	0	0	513	516	2	825	40	25	
8	0	0	0	0	515	516	4	1019	40	26	
9	0	0	0	0	519	511	3	1018	40	26	
10	0	0	0	0	524	511	1	1018	40	26	
11	0	0	0	0	528	512	3	1018	40	25	
12	0	0	0	0	528	509	3	1018	40	25	
13	0	0	0	0	527	509	1	1018	40	25	
14	0	0	0	0	523	506	2	1018	40	25	
15	0	0	0	0	515	503	0	400	40	25	
0	0	0	0	0	524	502	3	0	40	26	
1	0	0	0	0	525	500	0	0	40	25	
2	0	0	0	0	529	505	2	0	40	26	
3	0	0	0	0	526	506	2	0	40	25	
4	0	0	0	0	508	508	3	0	40	25	
5	0	0	0	0	501	509	3	0	40	25	
6	0	0	0	0	493	512	2	0	40	25	
7	0	0	0	0	498	514	2	0	40	25	
8	0	0	0	0	501	514	4	1019	40	25	
9	0	0	0	0	499	513	2	1018	40	25	
10	0	0	0	0	494	512	3	1018	40	25	
11	0	0	0	0	491	514	1	1018	40	25	
12	0	0	0	0	505	514	4	1019	40	26	
13	0	0	0	0	520	511	3	1018	40	25	
14	0	0	0	0	519	509	0	1018	40	25	
15	0	0	0	0	522	508	1	1018	40	25	
0	0	0	0	0	532	506	1	0	39	25	
1	0	0	0	0	535	504	0	0	40	25	
2	0	0	0	0	533	502	2	0	40	25	
3	0	0	0	0	526	505	0	0	40	25	
4	0	0	0	0	515	506	1	0	40	25	
5	0	0	0	0	505	510	2	0	40	25	
6	0	0	0	0	511	513	1	0	40	25	
7	0	0	0	0	512	514	3	0	40	25	
8	0	0	0	0	543	515	3	0	40	25	
9	0	0	0	0	589	513	3	1019	40	25	
10	0	0	0	0	580	511	3	1018	40	25	
11	0	0	0	0	542	513	0	1018	40	25	
12	0	0	0	0	498	513	4	1019	40	25	
13	0	0	0	0	481	512	2	1018	40	25	
14	0	0	0	0	480	514	2	1018	40	25	
15	0	0	0	0	475	512	2	1018	40	25	
0	0	0	0	0	427	507	1	1018	40	25	
1	0	0	0	0	408	504	1	0	40	25	
2	0	0	0	0	455	503	0	0	40	25	
3	0	0	0	0	487	504	1	0	40	25	
4	0	0	0	0	496	505	2	0	40	25	
5	0	0	0	0	490	509	0	0	40	25	
6	0	0	0	0	501	513	3	0	40	25	
7	0	0	0	0	521	515	1	0	40	25	
8	0	0	0	0	539	516	3	0	40	25	
9	0	0	0	0	558	515	4	1018	40	25	
10	0	0	0	0	584	515	2	1018	40	25	
11	0	0	0	0	572	514	3	1018	40	25	
12	0	0	0	0	534	511	3	1019	40	25	
13	0	0	0	0	514	512	1	1019	40	25	
14	0	0	0	0	497	511	3	1018	40	25	
15	0	0	0	0	480	512	0	1018	40	25	
0	0	0	0	0	487	508	1	1019	40	25	
1	0	0	0	0	472	506	1	1018	40	25	
2	0	0	0	0	468	505	0	0	40	25	
3	0	0	0	0	496	503	1	0	40	25	
4	0	0	0	0	527	504	2	0	40	25	
5	0	0	0	0	535	506	2	0	40	25	
6	0	0	0	0	543	511	2	0	40	25	
7	0	0	0	0	532	514	1	0	40	25	
8	0	0	0	0	523	516	3	0	40	25	
9	0	0	0	0	529	516	2	0	40	25	
10	0	0	0	0	526	516	3	1018	40	25	
11	0	0	0	0	520	515	3	1018	40	25	
12	0	0	0	0	524	514	3	1018	40	25	
13	0	0	0	0	521	515	1	1018	40	25	
14	0	0	0	0	521	513	3	1018	40	25	
15	0	0	0	0	515	513	0	1018	40	25	
0	0	0	0	0	498	510	3	1019	40	25	
1	0	0	0	0	496	505	2	1018	40	25	
2	0	0	0	0	505	503	0	0	40	25	
3	0	0	0	0	522	502	1	0	40	25	
4	0	0	0	0	540	502	1	0	40	25	
5	0	0	0	0	535	504	0	0	40	25	
6	0	0	0	0	525	508	2	0	40	25	
7	0	0	0	0	515	511	0	0	40	25	
8	0	0	0	0	511	512	2	0	40	25	
9	0	0	0	0	510	514	3	0	40	25	
10	0	0	0	0	496	514	2	0	40	25	
11	0	0	0	0	491	513	3	1018	40	25	
12	0	0	0	0	502	512	4	1018	40	25	
13	0	0	0	0	511	512	1	1018	40	25	
14	0	0	0	0	519	512	3	1018	40	25	
15	0	0	0	0	512	512	1	1018	40	25	
0	0	0	0	0	514	509	1	1019	40	25	
1	0	0	0	0	529	506	2	1018	40	25	
2	0	0	0	0	540	507	0	1017	40	25	
3	0	0	0	0	539	505	1	0	40	25	
4	0	0	0	0	532	502	1	0	40	25	
5	0	0	0	0	520	504	1	0	40	25	
6	0	0	0	0	497	504	1	0	40	25	
7	0	0	0	0	483	510	0	0	40	25	
8	0	0	0	0	485	512	2	0	40	25	
9	0	0	0	0	480	514	2	0	40	25	
10	0	0	0	0	480	516	3	0	40	25	
11	0	0	0	0	487	518	3	424	40	25	
12	0	0	0	0	504	515	3	1019	40	25	
13	0	0	0	0	518	515	3	1018	40	25	
14	0	0	0	0	516	514	2	1018	40	25	
15	0	0	0	0	520	514	2	1018	40	25	
0	0	0	0	0	524	511	2	1019	40	25	
1	0	0	0	0	524	508	0	1018	40	25	
2	0	0	0	0	528	507	2	1018	40	25	
3	0	0	0	0	525	505	0	0	40	25	
4	0	0	0	0	527	505	2	0	40	25	
5	0	0	0	0	526	503	1	0	40	25	
6	0	0	0	0	522	506	0	0	40	25	
7	0	0	0	0	517	508	2	0	40	25	
8	0	0	0	0	513	510	1	0	40	25	
9	0	0	0	0	515	512	0	0	40	25	
10	0	0	0	0	531	515	3	0	40	25	
11	0	0	0	0	542	518	2	0	40	25	
12	0	0	0	0	538	515	4	1019	40	25	
13	0	0	0	0	530	514	4	1018	40	25	
14	0	0	0	0	519	512	1	1018	40	25	
15	0	0	0	0	498	514	2	1018	40	25	
0	0	0	0	0	490	513	3	1019	40	25	
1	0	0	0	0	450	512	1	1018	40	24	
2	0	0	0	0	440	512	2	1018	40	24	
3	0	0	0	0	480	509	0	1017	40	24	
4	0	0	0	0	505	506	1	0	40	24	
5	0	0	0	0	515	505	1	0	40	24	
6	0	0	0	0	522	505	0	0	40	24	
7	0	0	0	0	525	507	2	0	40	24	
8	0	0	0	0	524	510	3	0	40	24	
9	0	0	0	0	512	514	2	0	40	24	
10	0	0	0	0	512	515	2	0	40	24	
11	0	0	0	0	519	514	3	0	40	24	
12	0	0	0	0	524	513	3	0	40	24	
13	0	0	0	0	527	515	2	1018	40	24	
14	0	0	0	0	531	512	3	1018	40	24	
15	0	0	0	0	527	514	2	1018	40	24	
0	0	0	0	0	537	513	3	1019	40	24	
1	0	0	0	0	551	512	3	1018	40	24	
2	0	0	0	0	542	512	1	1018	40	24	
3	0	0	0	0	524	510	2	1018	40	24	
4	0	0	0	0	519	507	2	1017	40	24	
5	0	0	0	0	508	504	0	0	40	24	
6	0	0	0	0	506	504	1	0	40	24	
7	0	0	0	0	496	505	0	0	40	24	
8	0	0	0	0	493	508	3	0	40	24	
9	0	0	0	0	487	510	2	0	40	24	
10	0	0	0	0	465	513	0	0	40	24	
11	0	0	0	0	485	518	2	0	40	24	
12	0	0	0	0	510	516	2	0	40	24	
13	0	0	0	0	509	514	2	1017	40	24	
14	0	0	0	0	515	514	3	1018	40	24	
15	0	0	0	0	511	511	1	1018	40	24	
0	0	0	0	0	507	510	2	1019	40	24	
1	0	0	0	0	520	510	2	1019	40	24	
2	0	0	0	0	531	510	1	1018	40	24	
3	0	0	0	0	531	509	2	1018	40	24	
4	0	0	0	0	536	505	2	1019	40	24	
5	0	0	0	0	540	503	1	0	40	24	
6	0	0	0	0	536	502	0	0	40	24	
7	0	0	0	0	552	501	0	0	40	24	
8	0	0	0	0	538	504	3	0	40	24	
9	0	0	0	0	489	504	1	0	40	24	
10	0	0	0	0	479	508	3	0	40	24	
11	0	0	0	0	497	510	2	0	40	24	
12	0	0	0	0	482	514	4	0	40	24	
13	0	0	0	0	461	513	3	0	40	24	
14	0	0	0	0	477	512	2	1018	40	24	
15	0	0	0	0	485	512	3	1018	40	24	
0	0	0	0	0	467	512	3	1019	40	24	
1	0	0	0	0	465	511	1	1018	40	24	
2	0	0	0	0	510	512	3	1018	40	24	
3	0	0	0	0	537	510	2	1018	40	24	
4	0	0	0	0	541	508	1	1019	40	24	
5	0	0	0	0	538	505	1	1019	40	24	
6	0	0	0	0	536	503	1	1018	40	24	
7	0	0	0	0	545	503	0	0	40	24	
8	0	0	0	0	540	504	3	0	40	24	
9	0	0	0	0	527	508	2	0	40	24	
10	0	0	0	0	520	509	0	0	40	24	
11	0	0	0	0	510	511	2	0	40	24	
12	0	0	0	0	497	514	3	0	40	24	
13	0	0	0	0	497	515	1	0	40	24	
14	0	0	0	0	505	513	3	0	40	24	
15	0	0	0	0	508	513	2	1018	40	24	
0	0	0	0	0	520	511	2	1018	40	24	
1	0	0	0	0	520	511	3	1018	40	24	
2	0	0	0	0	521	511	2	1018	40	24	
3	0	0	0	0	519	510	1	1018	40	24	
4	0	0	0	0	523	510	4	1019	40	24	
5	0	0	0	0	524	507	1	1018	40	24	
6	0	0	0	0	524	506	0	1018	40	24	
7	0	0	0	0	527	504	1	37	40	24	
8	0	0	0	0	529	501	1	0	40	24	
9	0	0	0	0	523	502	0	0	40	24	
10	0	0	0	0	516	505	2	0	40	24	
11	0	0	0	0	512	508	1	0	40	24	
12	0	0	0	0	508	511	3	0	40	24	
13	0	0	0	0	502	512	3	0	40	24	
14	0	0	0	0	500	512	1	0	40	24	
15	0	0	0	0	496	513	3	1010	40	24	
0	0	0	0	0	496	513	3	1019	40	24	
1	0	0	0	0	492	513	1	1018	40	24	
2	0	0	0	0	496	513	3	1018	40	24	
3	0	0	0	0	511	514	1	1018	40	24	
4	0	0	0	0	521	513	1	1019	40	24	
5	0	0	0	0	515	513	2	1018	40	24	
6	0	0	0	0	518	513	0	1018	40	24	
7	0	0	0	0	524	510	1	1018	40	24	
8	0	0	0	0	530	505	1	0	40	24	
9	0	0	0	0	526	503	0	0	40	24	
10	0	0	0	0	514	506	2	0	40	24	
11	0	0	0	0	514	510	0	0	40	24	
12	0	0	0	0	517	511	3	0	40	24	
13	0	0	0	0	520	511	3	0	40	24	
14	0	0	0	0	520	513	1	0	40	24	
15	0	0	0	0	523	515	3	0	40	24	
0	0	0	0	0	528	514	4	1018	40	24	
1	0	0	0	0	532	513	2	1018	40	24	
2	0	0	0	0	523	511	3	1018	40	24	
3	0	0	0	0	503	514	0	1018	40	24	
4	0	0	0	0	502	514	3	1018	40	24	
5	0	0	0	0	500	512	2	1018	40	24	
6	0	0	0	0	492	511	0	1018	40	24	
7	0	0	0	0	496	506	2	1018	40	24	
8	0	0	0	0	487	506	1	0	39	24	
9	0	0	0	0	483	503	0	0	40	24	
10	0	0	0	0	484	504	2	0	40	24	
11	0	0	0	0	486	506	0	0	40	24	
12	0	0	0	0	500	508	3	0	40	24	
13	0	0	0	0	506	511	2	0	40	24	
14	0	0	0	0	510	515	1	0	40	24	
15	0	0	0	0	529	514	3	0	40	24	
0	0	0	0	0	545	513	3	0	40	24	
1	0	0	0	0	547	512	2	1019	40	24	
2	0	0	0	0	547	512	3	1018	40	24	
3	0	0	0	0	536	514	0	1017	40	24	
4	0	0	0	0	524	515	4	1019	40	24	
5	0	0	0	0	524	514	2	1018	40	24	
6	0	0	0	0	500	512	1	1018	40	24	
7	0	0	0	0	474	509	2	1018	40	24	
8	0	0	0	0	484	508	1	1018	40	24	
9	0	0	0	0	506	505	2	0	40	24	
10	0	0	0	0	534	507	2	0	40	24	
11	0	0	0	0	539	508	0	0	40	24	
12	0	0	0	0	559	508	1	0	40	24	
13	0	0	0	0	550	511	1	0	40	24	
14	0	0	0	0	529	513	1	0	40	24	
15	0	0	0	0	516	514	2	0	40	24	
0	0	0	0	0	504	515	3	0	40	24	
1	0	0	0	0	487	513	3	0	40	24	
2	0	0	0	0	465	515	2	1018	40	24	
3	0	0	0	0	454	512	1	1018	40	24	
4	0	0	0	0	455	512	1	1018	40	24	
5	0	0	0	0	465	513	1	1018	40	24	
6	0	0	0	0	481	512	2	1018	40	24	
7	0	0	0	0	512	510	2	1018	40	24	
8	0	0	0	0	536	508	2	1019	40	24	
9	0	0	0	0	538	507	2	0	40	24	
10	0	0	0	0	553	504	1	0	40	24	
11	0	0	0	0	546	502	0	0	40	24	
12	0	0	0	0	533	502	1	0	40	24	
13	0	0	0	0	500	508	1	0	40	24	
14	0	0	0	0	480	511	3	0	40	24	
15	0	0	0	0	487	514	2	0	40	24	
0	0	0	0	0	491	514	3	0	40	24	
1	0	0	0	0	502	513	3	0	40	24	
2	0	0	0	0	520	513	2	1018	40	24	
3	0	0	0	0	520	512	2	1018	40	24	
4	0	0	0	0	524	512	1	1019	40	24	
5	0	0	0	0	522	513	1	1018	40	24	
6	0	0	0	0	521	513	3	1018	40	24	
7	0	0	0	0	529	512	2	1018	40	24	
8	0	0	0	0	531	510	2	1019	40	24	
9	0	0	0	0	531	506	1	1018	40	24	
10	0	0	0	0	534	504	0	0	40	24	
11	0	0	0	0	533	503	0	0	40	24	
12	0	0	0	0	531	502	1	0	40	24	
13	0	0	0	0	521	506	1	0	40	24	
14	0	0	0	0	512	509	2	0	40	24	
15	0	0	0	0	513	513	2	0	40	24	
0	0	0	0	0	509	515	2	0	40	24	
1	0	0	0	0	504	517	3	0	40	24	
2	0	0	0	0	506	517	3	994	40	24	
3	0	0	0	0	509	518	1	1018	40	24	
4	0	0	0	0	510	516	4	1019	40	24	
5	0	0	0	0	498	514	3	1018	40	24	
6	0	0	0	0	502	515	1	1018	40	24	
7	0	0	0	0	497	515	2	1018	40	24	
8	0	0	0	0	509	513	2	1019	40	24	
9	0	0	0	0	520	508	0	1018	40	24	
10	0	0	0	0	513	507	2	1018	40	24	
11	0	0	0	0	510	505	1	0	40	24	
12	0	0	0	0	521	504	1	0	40	24	
13	0	0	0	0	523	504	2	0	40	24	
14	0	0	0	0	515	504	1	0	40	24	
15	0	0	0	0	513	505	0	0	40	24	
0	0	0	0	0	509	508	2	0	40	24	
1	0	0	0	0	510	510	2	0	40	24	
2	0	0	0	0	509	512	1	0	40	24	
3	0	0	0	0	507	514	3	1018	40	24	
4	0	0	0	0	515	513	3	1018	40	24	
5	0	0	0	0	523	513	1	1018	40	24	
6	0	0	0	0	521	513	3	1018	40	24	
7	0	0	0	0	519	514	1	1018	40	24	
8	0	0	0	0	510	512	3	1019	40	24	
9	0	0	0	0	504	508	2	1018	40	24	
10	0	0	0	0	508	505	0	1018	40	24	
11	0	0	0	0	517	503	2	1018	40	24	
12	0	0	0	0	515	503	1	0	40	24	
13	0	0	0	0	515	500	0	0	40	24	
14	0	0	0	0	518	504	1	0	40	25	
15	0	0	0	0	503	507	0	0	40	24	
0	0	0	0	0	493	509	1	0	40	24	
1	0	0	0	0	499	510	3	0	40	25	
2	0	0	0	0	503	513	1	0	40	25	
3	0	0	0	0	506	513	3	0	40	25	
4	0	0	0	0	513	514	3	1019	40	25	
5	0	0	0	0	524	512	1	1018	40	25	
6	0	0	0	0	525	513	3	1018	40	25	
7	0	0	0	0	525	513	1	1018	40	25	
8	0	0	0	0	527	513	3	1019	40	25	
9	0	0	0	0	527	511	2	1018	40	25	
10	0	0	0	0	529	510	0	1018	40	25	
11	0	0	0	0	523	508	0	1018	40	25	
12	0	0	0	0	509	504	1	0	40	25	
13	0	0	0	0	503	503	0	0	40	25	
14	0	0	0	0	509	503	2	0	40	25	
15	0	0	0	0	509	505	1	0	40	25	
0	0	0	0	0	511	507	2	0	40	25	
1	0	0	0	0	512	511	0	0	40	25	
2	0	0	0	0	508	512	3	0	40	25	
3	0	0	0	0	494	513	1	0	40	25	
4	0	0	0	0	485	514	2	0	40	25	
5	0	0	0	0	494	514	4	1018	40	25	
6	0	0	0	0	531	515	1	1018	40	25	
7	0	0	0	0	543	515	2	1018	40	25	
8	0	0	0	0	538	513	3	1018	40	25	
9	0	0	0	0	532	512	0	1018	40	25	
10	0	0	0	0	522	511	2	1018	40	25	
11	0	0	0	0	511	511	0	1018	40	25	
12	0	0	0	0	496	510	1	1018	40	25	
13	0	0	0	0	486	508	1	0	40	25	
14	0	0	0	0	484	506	0	0	40	25	
15	0	0	0	0	471	507	1	0	40	25	
0	0	0	0	0	465	508	2	0	40	25	
1	0	0	0	0	489	513	0	0	40	25	
2	0	0	0	0	513	515	3	0	40	25	
3	0	0	0	0	520	517	1	0	40	25	
4	0	0	0	0	534	518	4	0	40	25	
5	0	0	0	0	530	515	2	746	40	25	
6	0	0	0	0	520	515	3	1018	40	25	
7	0	0	0	0	521	514	3	1018	40	25	
8	0	0	0	0	510	514	2	1018	40	25	
9	0	0	0	0	500	515	3	1019	40	25	
10	0	0	0	0	522	515	0	1018	40	25	
11	0	0	0	0	535	516	2	1018	40	25	
12	0	0	0	0	540	511	1	1019	40	25	
13	0	0	0	0	532	508	1	587	40	25	
14	0	0	0	0	530	504	2	0	40	25	
15	0	0	0	0	527	502	0	0	40	25	
0	0	0	0	0	512	503	1	0	40	25	
1	0	0	0	0	514	506	1	0	40	25	
2	0	0	0	0	517	509	1	0	40	24	
3	0	0	0	0	528	512	2	0	40	24	
4	0	0	0	0	519	514	3	0	40	24	
5	0	0	0	0	511	514	3	0	40	24	
6	0	0	0	0	497	516	3	1018	40	24	
7	0	0	0	0	490	515	1	1018	40	24	
8	0	0	0	0	495	514	4	1019	40	24	
9	0	0	0	0	484	512	1	1018	40	24	
10	0	0	0	0	492	513	3	1018	40	24	
11	0	0	0	0	513	513	2	1018	40	24	
12	0	0	0	0	515	512	1	1019	40	24	
13	0	0	0	0	521	512	1	1018	40	24	
14	0	0	0	0	511	508	0	0	40	24	
15	0	0	0	0	503	508	1	0	40	24	
0	0	0	0	0	500	505	0	0	40	24	
1	0	0	0	0	497	507	1	0	40	24	
2	0	0	0	0	503	509	2	0	40	24	
3	0	0	0	0	510	512	2	0	40	24	
4	0	0	0	0	507	517	3	0	40	24	
5	0	0	0	0	513	517	3	0	40	24	
6	0	0	0	0	521	516	4	0	40	24	
7	0	0	0	0	527	516	1	1018	40	24	
8	0	0	0	0	531	516	4	1019	40	24	
9	0	0	0	0	527	515	3	1018	40	24	
10	0	0	0	0	524	514	1	1018	40	24	
11	0	0	0	0	518	515	1	1018	40	24	
12	0	0	0	0	519	512	2	1019	40	24	
13	0	0	0	0	520	510	1	1018	40	24	
14	0	0	0	0	523	508	0	1018	40	24	
15	0	0	0	0	523	504	1	0	40	24	
0	0	0	0	0	517	503	2	0	40	24	
1	0	0	0	0	515	502	0	0	40	24	
2	0	0	0	0	510	505	2	0	40	24	
3	0	0	0	0	507	508	1	0	40	24	
4	0	0	0	0	507	512	3	0	40	24	
5	0	0	0	0	508	511	3	0	40	24	
6	0	0	0	0	509	512	2	0	40	24	
7	0	0	0	0	511	513	2	1015	40	24	
8	0	0	0	0	506	512	4	1019	40	24	
9	0	0	0	0	506	509	2	1018	40	24	
10	0	0	0	0	508	511	1	1018	40	24	
11	0	0	0	0	511	511	3	1018	40	24	
12	0	0	0	0	516	511	1	1018	40	24	
13	0	0	0	0	522	509	0	1018	40	24	
14	0	0	0	0	518	508	2	1018	40	24	
15	0	0	0	0	529	507	0	0	40	24	
0	0	0	0	0	529	504	2	0	40	24	
1	0	0	0	0	521	501	2	0	40	24	
2	0	0	0	0	511	504	0	0	40	24	
3	0	0	0	0	495	504	0	0	40	24	
4	0	0	0	0	487	507	3	0	40	24	
5	0	0	0	0	499	507	1	0	40	24	
6	0	0	0	0	491	510	1	0	40	24	
7	0	0	0	0	487	511	3	0	40	24	
8	0	0	0	0	512	511	3	1019	40	24	
9	0	0	0	0	556	510	2	1018	40	24	
10	0	0	0	0	558	509	3	1019	40	24	
11	0	0	0	0	542	509	1	1018	40	24	
12	0	0	0	0	547	510	4	1019	40	24	
13	0	0	0	0	549	508	2	1018	40	24	
14	0	0	0	0	542	508	1	1018	40	24	
15	0	0	0	0	525	506	0	1018	40	24	
0	0	0	0	0	516	505	3	0	40	24	
1	0	0	0	0	501	504	1	0	40	24	
2	0	0	0	0	478	505	0	0	40	24	
3	0	0	0	0	449	507	2	0	40	24	
4	0	0	0	0	451	508	2	0	40	24	
5	0	0	0	0	477	511	3	0	40	24	
6	0	0	0	0	484	513	3	0	40	24	
7	0	0	0	0	484	514	1	0	40	24	
8	0	0	0	0	482	512	4	0	40	24	
9	0	0	0	0	493	511	2	1019	40	24	
10	0	0	0	0	515	510	2	1018	40	24	
11	0	0	0	0	521	513	2	1018	40	24	
12	0	0	0	0	529	514	2	1019	40	24	
13	0	0	0	0	531	515	0	1018	40	24	
14	0	0	0	0	531	514	2	1018	40	24	
15	0	0	0	0	529	512	0	1018	40	24	
0	0	0	0	0	526	511	3	0	40	24	
1	0	0	0	0	525	507	1	0	40	24	
2	0	0	0	0	525	506	1	0	40	24	
3	0	0	0	0	532	508	2	0	40	24	
4	0	0	0	0	530	510	2	0	40	24	
5	0	0	0	0	527	512	2	0	40	24	
6	0	0	0	0	528	515	3	0	40	24	
7	0	0	0	0	520	515	0	0	40	24	
8	0	0	0	0	521	515	4	0	40	24	
9	0	0	0	0	516	513	3	1018	40	24	
10	0	0	0	0	520	512	2	1018	40	24	
11	0	0	0	0	516	512	3	1018	40	24	
12	0	0	0	0	487	510	1	1019	40	24	
13	0	0	0	0	464	509	3	1019	40	24	
14	0	0	0	0	472	508	2	1018	40	24	
15	0	0	0	0	493	510	0	1018	40	24	
0	0	0	0	0	532	506	1	1019	40	24	
1	0	0	0	0	551	503	2	0	40	24	
2	0	0	0	0	546	502	0	0	40	24	
3	0	0	0	0	535	501	2	0	40	24	
4	0	0	0	0	499	503	2	0	40	24	
5	0	0	0	0	470	506	2	0	40	24	
6	0	0	0	0	473	509	3	0	40	24	
7	0	0	0	0	495	512	0	0	40	24	
8	0	0	0	0	508	514	4	0	40	24	
9	0	0	0	0	519	512	2	0	40	24	
10	0	0	0	0	526	513	2	1018	40	24	
11	0	0	0	0	516	511	3	1018	40	24	
12	0	0	0	0	511	509	3	1018	40	24	
13	0	0	0	0	505	510	3	1018	40	24	
14	0	0	0	0	508	510	3	1018	40	24	
15	0	0	0	0	519	509	0	1018	40	24	
0	0	0	0	0	528	505	3	1019	39	24	
1	0	0	0	0	528	503	2	1018	40	24	
2	0	0	0	0	528	502	0	0	40	24	
3	0	0	0	0	537	501	1	0	40	24	
4	0	0	0	0	536	499	1	0	40	24	
5	0	0	0	0	524	503	1	0	40	24	
6	0	0	0	0	512	507	2	0	40	24	
7	0	0	0	0	505	511	2	0	40	24	
8	0	0	0	0	503	513	3	0	40	24	
9	0	0	0	0	505	514	1	0	40	24	
10	0	0	0	0	507	515	4	809	40	24	
11	0	0	0	0	509	515	1	1018	40	24	
12	0	0	0	0	512	513	4	1019	40	24	
13	0	0	0	0	509	511	3	1018	40	24	
14	0	0	0	0	495	509	1	1018	40	24	
15	0	0	0	0	512	510	2	1018	40	24	
0	0	0	0	0	533	508	2	1019	40	24	
1	0	0	0	0	531	507	0	1018	40	24	
2	0	0	0	0	548	506	1	244	40	24	
3	0	0	0	0	560	506	0	0	40	24	
4	0	0	0	0	556	505	3	0	40	24	
5	0	0	0	0	529	504	2	0	40	24	
6	0	0	0	0	497	508	0	0	40	24	
7	0	0	0	0	473	510	2	0	40	24	
8	0	0	0	0	451	512	3	0	40	24	
9	0	0	0	0	440	513	1	0	40	24	
10	0	0	0	0	455	513	3	0	40	24	
11	0	0	0	0	477	514	1	1018	40	24	
12	0	0	0	0	505	514	4	1019	40	24	
13	0	0	0	0	508	512	3	1018	40	24	
14	0	0	0	0	515	513	1	1018	40	24	
15	0	0	0	0	526	513	3	1018	40	24	
0	0	0	0	0	539	512	2	1019	39	24	
1	0	0	0	0	533	508	2	1018	40	24	
2	0	0	0	0	519	508	1	1018	40	24	
3	0	0	0	0	504	506	0	0	40	24	
4	0	0	0	0	496	506	3	0	40	24	
5	0	0	0	0	489	503	0	0	40	24	
6	0	0	0	0	484	508	2	0	40	24	
7	0	0	0	0	480	509	0	0	40	24	
8	0	0	0	0	491	512	3	0	40	24	
9	0	0	0	0	523	512	3	0	40	24	
10	0	0	0	0	547	512	1	0	40	24	
11	0	0	0	0	567	513	1	0	40	24	
12	0	0	0	0	571	513	4	1019	40	24	
13	0	0	0	0	585	512	2	1018	40	24	
14	0	0	0	0	560	511	1	1018	40	24	
15	0	0	0	0	532	510	3	1018	40	24	
0	0	0	0	0	515	508	2	1019	40	24	
1	0	0	0	0	516	508	1	1019	40	24	
2	0	0	0	0	503	508	2	1018	40	24	
3	0	0	0	0	504	506	0	160	40	24	
4	0	0	0	0	516	502	3	0	40	24	
5	0	0	0	0	528	501	2	0	40	24	
6	0	0	0	0	518	501	0	0	40	24	
7	0	0	0	0	494	503	2	0	40	24	
8	0	0	0	0	488	506	2	0	40	24	
9	0	0	0	0	479	508	0	0	40	24	
10	0	0	0	0	477	511	3	0	40	24	
11	0	0	0	0	493	513	2	0	40	24	
12	0	0	0	0	497	511	2	1018	40	24	
13	0	0	0	0	506	511	3	1019	40	24	
14	0	0	0	0	513	511	1	1018	40	24	
15	0	0	0	0	514	513	3	1018	40	24	
0	0	0	0	0	511	511	1	1019	40	24	
1	0	0	0	0	508	513	1	1018	40	24	
2	0	0	0	0	508	512	2	1018	40	24	
3	0	0	0	0	509	512	0	1018	40	24	
4	0	0	0	0	512	511	3	1019	40	24	
5	0	0	0	0	516	508	1	0	40	24	
6	0	0	0	0	519	505	0	0	40	24	
7	0	0	0	0	515	506	1	0	40	24	
8	0	0	0	0	513	508	2	0	40	25	
9	0	0	0	0	515	509	2	0	40	25	
10	0	0	0	0	514	512	2	0	40	25	
11	0	0	0	0	511	514	1	0	40	25	
12	0	0	0	0	517	514	1	0	40	25	
13	0	0	0	0	521	513	2	1018	40	25	
14	0	0	0	0	524	514	3	1018	40	25	
15	0	0	0	0	527	514	2	1018	40	25	
0	0	0	0	0	518	513	3	1019	40	25	
1	0	0	0	0	509	513	2	1019	40	25	
2	0	0	0	0	499	511	1	1018	40	25	
3	0	0	0	0	498	511	2	1018	40	25	
4	0	0	0	0	494	508	2	1019	40	25	
5	0	0	0	0	503	507	0	0	40	25	
6	0	0	0	0	524	505	1	0	40	25	
7	0	0	0	0	526	505	0	0	40	25	
8	0	0	0	0	521	508	3	0	40	25	
9	0	0	0	0	522	507	2	0	40	25	
10	0	0	0	0	515	509	1	0	40	25	
11	0	0	0	0	506	511	2	0	40	25	
12	0	0	0	0	508	511	3	0	40	25	
13	0	0	0	0	508	513	1	0	40	25	
14	0	0	0	0	517	515	3	1018	40	25	
15	0	0	0	0	515	513	0	1018	40	25	
0	0	0	0	0	518	511	4	1019	40	25	
1	0	0	0	0	526	510	1	1018	40	25	
2	0	0	0	0	529	510	3	1018	40	25	
3	0	0	0	0	529	510	1	1018	40	25	
4	0	0	0	0	526	508	3	1019	40	25	
5	0	0	0	0	515	505	2	737	40	25	
6	0	0	0	0	508	504	0	0	40	25	
7	0	0	0	0	492	505	2	0	40	25	
8	0	0	0	0	486	503	1	0	40	25	
9	0	0	0	0	484	505	1	0	40	25	
10	0	0	0	0	497	507	2	0	40	25	
11	0	0	0	0	516	508	0	0	40	25	
12	0	0	0	0	532	511	4	0	40	25	
13	0	0	0	0	541	511	2	0	40	25	
14	0	0	0	0	549	512	4	1018	40	25	
15	0	0	0	0	525	513	2	1018	40	25	
0	0	0	0	0	495	511	2	1018	40	25	
1	0	0	0	0	474	512	3	1018	40	25	
2	0	0	0	0	476	512	1	1018	40	25	
3	0	0	0	0	487	512	3	1018	40	25	
4	0	0	0	0	497	511	1	1019	40	25	
5	0	0	0	0	521	508	0	1018	40	25	
6	0	0	0	0	532	508	2	1018	40	25	
7	0	0	0	0	540	508	0	0	40	25	
8	0	0	0	0	538	507	3	0	40	25	
9	0	0	0	0	528	507	0	0	40	25	
10	0	0	0	0	523	507	2	0	40	25	
11	0	0	0	0	509	509	2	0	40	25	
12	0	0	0	0	490	511	2	0	40	25	
13	0	0	0	0	475	511	3	0	40	25	
14	0	0	0	0	469	513	1	0	40	25	
15	0	0	0	0	473	513	3	1018	40	25	
0	0	0	0	0	498	513	3	1018	40	25	
1	0	0	0	0	531	511	1	1018	40	25	
2	0	0	0	0	553	513	3	1018	40	25	
3	0	0	0	0	542	513	0	1018	40	25	
4	0	0	0	0	534	512	1	1018	40	25	
5	0	0	0	0	492	510	1	1018	40	25	
6	0	0	0	0	457	509	2	1018	40	25	
7	0	0	0	0	446	507	2	0	40	25	
8	0	0	0	0	481	504	1	0	40	25	
9	0	0	0	0	529	504	2	0	40	25	
10	0	0	0	0	562	506	0	0	40	25	
11	0	0	0	0	596	508	2	0	40	25	
12	0	0	0	0	587	510	1	0	40	25	
13	0	0	0	0	583	513	1	0	40	25	
14	0	0	0	0	581	514	3	0	40	25	
15	0	0	0	0	545	516	3	0	40	25	
0	0	0	0	0	516	514	3	1019	40	25	
1	0	0	0	0	507	513	3	1018	40	25	
2	0	0	0	0	499	513	2	1018	40	25	
3	0	0	0	0	488	513	0	1018	40	25	
4	0	0	0	0	477	512	3	1019	40	25	
5	0	0	0	0	478	512	1	1019	40	25	
6	0	0	0	0	488	512	0	1018	40	25	
7	0	0	0	0	497	511	1	208	40	25	
8	0	0	0	0	497	508	1	0	40	25	
9	0	0	0	0	495	507	0	0	40	25	
10	0	0	0	0	493	508	2	0	40	25	
11	0	0	0	0	500	510	0	0	40	25	
12	0	0	0	0	505	512	3	0	40	25	
13	0	0	0	0	509	511	3	0	40	25	
14	0	0	0	0	512	512	1	0	40	25	
15	0	0	0	0	512	515	3	0	40	25	
0	0	0	0	0	513	516	3	1019	40	25	
1	0	0	0	0	508	515	1	1019	40	25	
2	0	0	0	0	514	514	3	1018	40	25	
3	0	0	0	0	513	514	1	1018	40	25	
4	0	0	0	0	512	512	2	1018	40	25	
5	0	0	0	0	515	514	3	1018	40	25	
6	0	0	0	0	521	512	1	1018	40	25	
7	0	0	0	0	524	511	0	1018	40	25	
8	0	0	0	0	521	512	3	1019	40	25	
9	0	0	0	0	517	509	0	145	40	25	
10	0	0	0	0	512	507	2	0	40	25	
11	0	0	0	0	502	507	1	0	40	25	
12	0	0	0	0	512	506	2	0	40	25	
13	0	0	0	0	517	509	2	0	40	25	
14	0	0	0	0	524	511	1	0	40	25	
15	0	0	0	0	530	512	1	0	40	25	
0	0	0	0	0	531	511	3	0	40	25	
1	0	0	0	0	522	512	2	1018	40	25	
2	0	0	0	0	518	512	2	1018	40	25	
3	0	0	0	0	519	510	3	1018	40	25	
4	0	0	0	0	511	513	2	1019	40	25	
5	0	0	0	0	504	513	1	1019	40	25	
6	0	0	0	0	505	512	3	1018	40	25	
7	0	0	0	0	496	511	0	1018	40	25	
8	0	0	0	0	489	511	3	1019	39	25	
9	0	0	0	0	491	508	2	0	40	25	
10	0	0	0	0	493	507	0	0	40	25	
11	0	0	0	0	486	504	1	0	40	25	
12	0	0	0	0	491	505	2	0	40	25	
13	0	0	0	0	494	508	1	0	40	25	
14	0	0	0	0	493	511	3	0	40	25	
15	0	0	0	0	487	514	0	0	40	25	
0	0	0	0	0	508	512	3	0	40	25	
1	0	0	0	0	524	513	2	927	40	25	
2	0	0	0	0	527	515	3	1018	40	25	
3	0	0	0	0	521	513	2	1018	40	25	
4	0	0	0	0	503	512	1	1019	40	25	
5	0	0	0	0	488	512	3	1018	40	25	
6	0	0	0	0	488	515	0	1018	40	25	
7	0	0	0	0	513	514	2	1018	40	25	
8	0	0	0	0	547	513	2	1019	39	25	
9	0	0	0	0	572	509	1	1018	40	25	
10	0	0	0	0	583	508	1	0	40	25	
11	0	0	0	0	573	509	0	0	40	25	
12	0	0	0	0	562	507	1	0	40	25	
13	0	0	0	0	542	508	1	0	40	25	
14	0	0	0	0	514	509	2	0	40	25	
15	0	0	0	0	491	511	1	0	40	25	
0	0	0	0	0	484	514	4	0	40	25	
1	0	0	0	0	483	511	3	0	40	25	
2	0	0	0	0	487	511	3	1018	40	25	
3	0	0	0	0	502	512	1	1018	40	25	
4	0	0	0	0	505	511	3	1019	40	25	
5	0	0	0	0	505	512	1	1018	40	25	
6	0	0	0	0	513	512	3	1018	40	25	
7	0	0	0	0	511	512	2	1018	40	25	
8	0	0	0	0	512	511	3	1019	40	25	
9	0	0	0	0	509	509	2	1018	40	25	
10	0	0	0	0	502	510	1	0	40	25	
11	0	0	0	0	508	508	0	0	40	25	
12	0	0	0	0	511	507	3	0	40	25	
13	0	0	0	0	521	504	0	0	40	25	
14	0	0	0	0	519	508	2	0	40	25	
15	0	0	0	0	523	511	2	0	40	25	
0	0	0	0	0	528	513	3	0	40	25	
1	0	0	0	0	521	515	3	0	40	25	
2	0	0	0	0	525	514	1	0	40	25	
3	0	0	0	0	523	514	3	1018	40	25	
4	0	0	0	0	505	513	3	1019	40	25	
5	0	0	0	0	496	511	1	1018	40	25	
6	0	0	0	0	468	512	3	1018	40	25	
7	0	0	0	0	463	512	1	1018	40	25	
8	0	0	0	0	478	510	3	1019	40	25	
9	0	0	0	0	489	510	2	1018	40	25	
10	0	0	0	0	495	509	0	1018	40	25	
11	0	0	0	0	510	508	1	0	40	25	
12	0	0	0	0	531	506	1	0	40	25	
13	0	0	0	0	544	507	0	0	40	25	
14	0	0	0	0	541	510	2	0	40	25	
15	0	0	0	0	547	513	0	0	40	25	
0	0	0	0	0	542	514	3	0	40	25	
1	0	0	0	0	541	512	2	0	40	25	
2	0	0	0	0	534	515	1	0	40	25	
3	0	0	0	0	541	516	3	954	40	25	
4	0	0	0	0	544	514	3	1019	40	25	
5	0	0	0	0	531	512	1	1018	40	25	
6	0	0	0	0	522	510	2	1018	40	25	
7	0	0	0	0	503	510	1	1018	40	25	
8	0	0	0	0	483	509	1	1019	40	25	
9	0	0	0	0	481	509	3	1018	40	25	
10	0	0	0	0	495	509	0	1018	40	25	
11	0	0	0	0	498	509	2	1018	40	25	
12	0	0	0	0	507	507	1	0	40	25	
13	0	0	0	0	516	507	0	0	40	25	
14	0	0	0	0	518	505	2	0	40	25	
15	0	0	0	0	514	505	0	0	40	25	
0	0	0	0	0	515	508	3	0	40	25	
1	0	0	0	0	507	509	1	0	40	25	
2	0	0	0	0	501	508	3	0	40	25	
3	0	0	0	0	502	510	3	0	40	25	
4	0	0	0	0	505	511	3	1018	40	25	
5	0	0	0	0	504	512	3	1019	40	25	
6	0	0	0	0	504	511	1	1018	40	25	
7	0	0	0	0	508	511	1	1018	40	25	
8	0	0	0	0	513	511	3	1019	40	25	
9	0	0	0	0	507	511	2	1018	40	25	
10	0	0	0	0	509	508	0	1019	40	25	
11	0	0	0	0	512	507	2	1018	40	25	
12	0	0	0	0	527	506	1	0	40	25	
13	0	0	0	0	538	504	0	0	40	25	
14	0	0	0	0	536	505	2	0	40	25	
15	0	0	0	0	527	504	0	0	40	25	
0	0	0	0	0	507	504	1	0	40	25	
1	0	0	0	0	472	507	2	0	40	25	
2	0	0	0	0	458	508	1	0	40	25	
3	0	0	0	0	460	512	3	0	40	25	
4	0	0	0	0	470	512	3	0	40	25	
5	0	0	0	0	494	511	1	1018	40	25	
6	0	0	0	0	538	511	3	1018	40	25	
7	0	0	0	0	583	510	0	1018	40	25	
8	0	0	0	0	593	511	3	1019	40	25	
9	0	0	0	0	579	509	1	1018	40	25	
10	0	0	0	0	548	511	2	1018	40	25	
11	0	0	0	0	523	510	2	1018	40	25	
12	0	0	0	0	495	508	1	572	40	25	
13	0	0	0	0	484	505	2	0	40	25	
14	0	0	0	0	483	506	0	0	40	25	
15	0	0	0	0	490	505	2	0	40	25	
0	0	0	0	0	495	508	2	0	40	25	
1	0	0	0	0	496	507	0	0	40	25	
2	0	0	0	0	501	510	3	0	40	25	
3	0	0	0	0	503	514	0	0	40	25	
4	0	0	0	0	504	515	3	0	40	25	
5	0	0	0	0	507	515	3	843	40	25	
6	0	0	0	0	509	514	2	1018	40	25	
7	0	0	0	0	512	514	3	1018	40	25	
8	0	0	0	0	517	512	3	1018	40	25	
9	0	0	0	0	516	510	2	1018	40	25	
10	0	0	0	0	515	511	2	1018	40	25	
11	0	0	0	0	519	511	1	1018	40	25	
12	0	0	0	0	519	509	1	1018	40	25	
13	0	0	0	0	519	508	0	1019	40	25	
14	0	0	0	0	525	506	2	492	40	25	
15	0	0	0	0	526	506	2	0	40	25	
0	0	0	0	0	525	504	3	0	40	25	
1	0	0	0	0	515	505	2	0	40	25	
2	0	0	0	0	512	509	1	0	40	25	
3	0	0	0	0	510	511	2	0	40	25	
4	0	0	0	0	509	511	3	0	40	25	
5	0	0	0	0	514	510	1	0	40	25	
6	0	0	0	0	523	512	4	1018	40	25	
7	0	0	0	0	526	513	2	1018	40	25	
8	0	0	0	0	510	511	3	1019	40	25	
9	0	0	0	0	505	511	3	1018	40	25	
10	0	0	0	0	510	513	0	1018	40	25	
11	0	0	0	0	504	511	2	1018	40	25	
12	0	0	0	0	507	511	2	1019	40	25	
13	0	0	0	0	505	509	0	1018	40	25	
14	0	0	0	0	511	508	2	547	40	25	
15	0	0	0	0	518	506	0	0	40	25	
0	0	0	0	0	532	504	1	0	40	25	
1	0	0	0	0	535	505	0	0	40	25	
2	0	0	0	0	524	505	2	0	40	25	
3	0	0	0	0	515	509	2	0	40	25	
4	0	0	0	0	503	512	3	0	40	25	
5	0	0	0	0	485	513	3	0	40	25	
6	0	0	0	0	477	513	1	0	40	25	
7	0	0	0	0	482	514	3	1018	40	25	
8	0	0	0	0	492	513	3	1019	40	25	
9	0	0	0	0	516	512	1	1018	40	25	
10	0	0	0	0	523	512	3	1018	40	25	
11	0	0	0	0	517	512	1	1018	40	25	
12	0	0	0	0	536	510	3	1019	40	25	
13	0	0	0	0	548	512	2	1018	40	25	
14	0	0	0	0	530	512	0	1018	40	25	
15	0	0	0	0	511	509	1	0	40	25	
0	0	0	0	0	509	507	2	0	40	25	
1	0	0	0	0	521	507	2	0	40	25	
2	0	0	0	0	508	509	2	0	40	25	
3	0	0	0	0	494	512	0	0	40	25	
4	0	0	0	0	475	513	1	0	40	25	
5	0	0	0	0	473	514	1	0	40	25	
6	0	0	0	0	473	515	3	0	40	25	
7	0	0	0	0	488	517	3	1012	40	25	
8	0	0	0	0	487	512	3	1019	40	25	
9	0	0	0	0	506	511	3	1018	40	25	
10	0	0	0	0	518	510	1	1019	40	25	
11	0	0	0	0	519	509	2	1018	40	25	
12	0	0	0	0	525	511	2	1019	40	25	
13	0	0	0	0	555	511	0	1018	40	25	
14	0	0	0	0	570	510	2	1018	40	25	
15	0	0	0	0	577	508	2	349	40	25	
0	0	0	0	0	583	505	2	0	40	25	
1	0	0	0	0	586	504	2	0	40	25	
2	0	0	0	0	564	504	2	0	40	25	
3	0	0	0	0	522	506	0	0	40	25	
4	0	0	0	0	486	507	1	0	40	25	
5	0	0	0	0	465	509	3	0	40	25	
6	0	0	0	0	457	512	1	0	40	25	
7	0	0	0	0	457	513	3	0	40	25	
8	0	0	0	0	462	512	2	1018	40	25	
9	0	0	0	0	485	511	1	1018	40	25	
10	0	0	0	0	501	511	3	1018	40	25	
11	0	0	0	0	504	511	1	1018	40	25	
12	0	0	0	0	507	511	3	1019	40	25	
13	0	0	0	0	515	511	3	1018	40	25	
14	0	0	0	0	519	508	0	1018	40	25	
15	0	0	0	0	521	505	2	480	40	25	
0	0	0	0	0	522	505	2	0	40	25	
1	0	0	0	0	508	501	0	0	40	25	
2	0	0	0	0	508	503	2	0	40	25	
3	0	0	0	0	503	505	0	0	40	25	
4	0	0	0	0	503	506	2	0	40	25	
5	0	0	0	0	498	508	1	0	40	25	
6	0	0	0	0	499	510	1	0	40	25	
7	0	0	0	0	510	511	3	0	40	25	
8	0	0	0	0	519	513	4	0	40	25	
9	0	0	0	0	526	510	3	1018	40	25	
10	0	0	0	0	536	510	2	1018	40	25	
11	0	0	0	0	535	508	1	1018	40	25	
12	0	0	0	0	517	509	1	1019	40	25	
13	0	0	0	0	516	509	1	1018	40	25	
14	0	0	0	0	548	509	2	1018	40	25	
15	0	0	0	0	569	510	1	1018	40	25	
0	0	0	0	0	559	506	3	1018	40	25	
1	0	0	0	0	545	505	2	13	40	25	
2	0	0	0	0	535	507	0	0	40	25	
3	0	0	0	0	521	506	2	0	40	25	
4	0	0	0	0	503	509	1	0	40	25	
5	0	0	0	0	486	509	0	0	40	25	
6	0	0	0	0	476	511	3	0	40	25	
7	0	0	0	0	476	512	1	0	40	25	
8	0	0	0	0	483	513	4	0	40	25	
9	0	0	0	0	478	514	3	1018	40	25	
10	0	0	0	0	479	513	2	1018	40	25	
11	0	0	0	0	499	512	1	1018	40	25	
12	0	0	0	0	507	513	4	1019	40	25	
13	0	0	0	0	506	510	1	1018	40	25	
14	0	0	0	0	515	512	1	1018	40	25	
15	0	0	0	0	519	512	2	1018	40	25	
0	0	0	0	0	517	513	3	1019	40	25	
1	0	0	0	0	521	511	2	1018	40	25	
2	0	0	0	0	525	510	1	0	40	25	
3	0	0	0	0	528	511	0	0	40	25	
4	0	0	0	0	521	508	1	0	40	25	
5	0	0	0	0	512	510	0	0	40	25	
6	0	0	0	0	507	512	2	0	40	25	
7	0	0	0	0	491	514	1	0	40	25	
8	0	0	0	0	480	516	2	0	40	25	
9	0	0	0	0	480	516	3	0	40	25	
10	0	0	0	0	492	517	2	1018	40	25	
11	0	0	0	0	500	515	3	1018	40	25	
12	0	0	0	0	521	512	3	1019	40	25	
13	0	0	0	0	534	512	0	1018	40	25	
14	0	0	0	0	538	514	3	1018	40	25	
15	0	0	0	0	539	513	0	1018	40	25	
0	0	0	0	0	551	511	1	1018	40	25	
1	0	0	0	0	553	510	2	1018	40	25	
2	0	0	0	0	547	510	0	183	40	25	
3	0	0	0	0	537	509	2	0	40	25	
4	0	0	0	0	525	506	2	0	40	25	
5	0	0	0	0	512	504	2	0	40	25	
6	0	0	0	0	496	504	0	0	40	25	
7	0	0	0	0	483	506	2	0	40	25	
8	0	0	0	0	485	507	3	0	40	25	
9	0	0	0	0	486	510	1	0	40	25	
10	0	0	0	0	484	513	3	435	40	25	
11	0	0	0	0	490	512	1	1018	40	25	
12	0	0	0	0	509	515	5	1019	40	25	
13	0	0	0	0	519	513	2	1018	40	25	
14	0	0	0	0	512	515	3	1018	40	25	
15	0	0	0	0	511	514	2	1018	40	25	
0	0	0	0	0	518	513	3	1019	40	25	
1	0	0	0	0	533	513	2	1018	40	25	
2	0	0	0	0	534	511	0	1018	40	25	
3	0	0	0	0	534	511	2	1017	40	25	
4	0	0	0	0	544	509	2	0	40	25	
5	0	0	0	0	546	507	0	0	40	25	
6	0	0	0	0	513	506	2	0	40	25	
7	0	0	0	0	479	508	2	0	40	25	
8	0	0	0	0	466	511	3	0	39	25	
9	0	0	0	0	449	512	2	0	40	25	
10	0	0	0	0	455	514	1	0	40	25	
11	0	0	0	0	472	515	3	1018	40	25	
12	0	0	0	0	495	513	3	1018	40	25	
13	0	0	0	0	508	512	1	1018	40	25	
14	0	0	0	0	515	512	3	1019	40	25	
15	0	0	0	0	516	513	0	1018	40	25	
0	0	0	0	0	523	513	1	1019	40	25	
1	0	0	0	0	539	512	3	1018	40	25	
2	0	0	0	0	567	511	1	1018	40	25	
3	0	0	0	0	588	511	2	1018	40	25	
4	0	0	0	0	585	510	2	618	40	25	
5	0	0	0	0	581	510	2	0	40	25	
6	0	0	0	0	574	510	2	0	40	25	
7	0	0	0	0	543	510	0	0	40	25	
8	0	0	0	0	513	512	3	0	40	25	
9	0	0	0	0	486	512	1	0	40	25	
10	0	0	0	0	467	514	3	0	40	25	
11	0	0	0	0	467	515	2	0	40	25	
12	0	0	0	0	470	515	4	1019	40	25	
13	0	0	0	0	476	514	3	1019	40	25	
14	0	0	0	0	483	514	1	1018	40	25	
15	0	0	0	0	488	518	2	1018	40	25	
0	0	0	0	0	495	514	3	1018	40	25	
1	0	0	0	0	496	513	1	1018	40	25	
2	0	0	0	0	504	513	2	1019	40	25	
3	0	0	0	0	510	511	0	1018	40	25	
4	0	0	0	0	520	507	1	0	40	25	
5	0	0	0	0	534	504	0	0	40	25	
6	0	0	0	0	541	504	2	0	40	25	
7	0	0	0	0	542	507	0	0	40	25	
8	0	0	0	0	527	509	2	0	40	25	
9	0	0	0	0	514	510	3	0	40	25	
10	0	0	0	0	503	512	0	0	40	25	
11	0	0	0	0	495	514	2	0	40	25	
12	0	0	0	0	502	515	3	0	40	25	
13	0	0	0	0	510	513	2	1018	40	25	
14	0	0	0	0	523	512	3	1018	40	25	
15	0	0	0	0	523	512	0	1018	40	25	
0	0	0	0	0	523	512	4	1019	40	25	
1	0	0	0	0	515	511	1	1019	40	25	
2	0	0	0	0	507	511	2	1018	40	25	
3	0	0	0	0	508	512	2	1018	40	25	
4	0	0	0	0	504	511	2	1018	40	25	
5	0	0	0	0	504	510	2	51	40	25	
6	0	0	0	0	509	509	0	0	40	25	
7	0	0	0	0	504	507	2	0	40	25	
8	0	0	0	0	496	508	1	0	40	25	
9	0	0	0	0	490	509	0	0	40	25	
10	0	0	0	0	491	512	3	0	40	25	
11	0	0	0	0	496	515	1	0	40	25	
12	0	0	0	0	512	515	3	0	40	25	
13	0	0	0	0	523	514	4	1018	40	25	
14	0	0	0	0	520	514	1	1018	40	25	
15	0	0	0	0	518	514	3	1018	40	25	
0	0	0	0	0	519	511	3	1018	40	25	
1	0	0	0	0	521	510	0	1018	40	25	
2	0	0	0	0	524	510	2	1018	40	25	
3	0	0	0	0	527	511	1	1018	40	25	
4	0	0	0	0	533	511	3	1019	40	25	
5	0	0	0	0	532	508	2	1018	40	25	
6	0	0	0	0	529	507	0	0	40	25	
7	0	0	0	0	523	507	2	0	40	25	
8	0	0	0	0	516	506	2	0	39	25	
9	0	0	0	0	503	505	0	0	40	25	
10	0	0	0	0	509	507	2	0	40	25	
11	0	0	0	0	519	511	0	0	40	25	
12	0	0	0	0	525	513	4	0	40	25	
13	0	0	0	0	531	513	2	0	40	25	
14	0	0	0	0	531	514	2	1018	40	25	
15	0	0	0	0	527	515	3	1018	40	25	
0	0	0	0	0	519	515	3	1019	40	25	
1	0	0	0	0	505	512	0	1018	40	25	
2	0	0	0	0	491	512	2	1019	40	25	
3	0	0	0	0	499	512	1	1018	40	25	
4	0	0	0	0	504	512	3	1019	40	25	
5	0	0	0	0	506	512	2	1018	40	25	
6	0	0	0	0	524	512	1	0	40	25	
7	0	0	0	0	519	511	0	0	40	25	
8	0	0	0	0	513	510	3	0	40	25	
9	0	0	0	0	500	506	2	0	40	25	
10	0	0	0	0	481	508	0	0	40	25	
11	0	0	0	0	477	512	2	0	40	25	
12	0	0	0	0	454	511	3	0	40	25	
13	0	0	0	0	455	511	2	0	40	25	
14	0	0	0	0	451	511	3	0	40	25	
15	0	0	0	0	439	512	3	1018	40	25	
0	0	0	0	0	447	514	3	1019	40	25	
1	0	0	0	0	464	511	2	1018	40	25	
2	0	0	0	0	485	513	3	1018	40	25	
3	0	0	0	0	513	513	0	1018	40	25	
4	0	0	0	0	573	510	3	1018	40	25	
5	0	0	0	0	614	510	3	1018	40	25	
6	0	0	0	0	649	508	0	1018	40	25	
7	0	0	0	0	648	507	1	0	40	25	
8	0	0	0	0	644	504	1	0	40	25	
9	0	0	0	0	633	502	0	0	40	25	
10	0	0	0	0	582	504	2	0	40	25	
11	0	0	0	0	528	506	1	0	40	25	
12	0	0	0	0	500	509	3	0	40	25	
13	0	0	0	0	489	511	2	0	40	25	
14	0	0	0	0	474	512	2	0	40	25	
15	0	0	0	0	476	514	1	1018	40	25	
0	0	0	0	0	481	514	4	1019	40	25	
1	0	0	0	0	478	513	4	1018	40	25	
2	0	0	0	0	474	513	0	1019	40	25	
3	0	0	0	0	482	512	2	1018	40	25	
4	0	0	0	0	489	512	3	1019	40	25	
5	0	0	0	0	486	509	1	1018	40	25	
6	0	0	0	0	486	509	3	1018	40	25	
7	0	0	0	0	486	508	2	1018	40	25	
8	0	0	0	0	484	508	3	1018	40	25	
9	0	0	0	0	476	505	2	0	40	25	
10	0	0	0	0	473	504	2	0	40	25	
11	0	0	0	0	477	506	0	0	40	25	
12	0	0	0	0	495	505	1	0	40	25	
13	0	0	0	0	504	506	1	0	40	25	
14	0	0	0	0	492	508	3	0	40	25	
15	0	0	0	0	499	511	3	0	40	25	
0	0	0	0	0	511	512	4	1018	40	25	
1	0	0	0	0	516	511	3	1019	40	25	
2	0	0	0	0	523	512	2	1018	40	25	
3	0	0	0	0	547	514	1	1018	40	25	
4	0	0	0	0	583	512	3	1019	40	25	
5	0	0	0	0	593	511	2	1018	40	25	
6	0	0	0	0	591	511	2	1019	40	25	
7	0	0	0	0	571	509	2	1018	40	25	
8	0	0	0	0	559	511	3	1019	40	25	
9	0	0	0	0	531	509	2	227	40	25	
10	0	0	0	0	511	507	1	0	40	25	
11	0	0	0	0	498	508	0	0	40	25	
12	0	0	0	0	484	509	1	0	40	25	
13	0	0	0	0	475	511	2	0	40	25	
14	0	0	0	0	471	511	0	0	40	25	
15	0	0	0	0	471	511	3	0	40	25	
0	0	0	0	0	490	511	3	403	40	25	
1	0	0	0	0	488	509	1	1018	40	25	
2	0	0	0	0	499	511	3	1018	40	25	
3	0	0	0	0	509	509	2	1018	40	25	
4	0	0	0	0	509	510	3	1019	40	25	
5	0	0	0	0	523	510	2	1019	40	25	
6	0	0	0	0	540	510	1	1018	40	25	
7	0	0	0	0	551	509	0	1018	40	25	
8	0	0	0	0	540	508	1	1018	40	25	
9	0	0	0	0	536	506	3	1018	40	25	
10	0	0	0	0	519	504	0	0	40	25	
11	0	0	0	0	503	504	1	0	40	25	
12	0	0	0	0	487	508	1	0	40	25	
13	0	0	0	0	480	509	0	0	40	25	
14	0	0	0	0	476	511	2	0	40	25	
15	0	0	0	0	480	513	2	0	40	25	
0	0	0	0	0	484	515	4	0	40	25	
1	0	0	0	0	487	514	3	802	40	25	
2	0	0	0	0	497	513	2	1018	40	25	
3	0	0	0	0	487	511	1	1018	40	25	
4	0	0	0	0	484	511	4	1019	40	25	
5	0	0	0	0	485	509	2	1018	40	25	
6	0	0	0	0	490	510	0	1018	40	25	
7	0	0	0	0	500	508	2	1018	40	25	
8	0	0	0	0	519	509	2	1018	40	25	
9	0	0	0	0	533	509	0	456	40	25	
10	0	0	0	0	522	507	2	0	40	25	
11	0	0	0	0	522	505	0	0	40	25	
12	0	0	0	0	528	507	3	0	40	25	
13	0	0	0	0	536	507	2	0	40	25	
14	0	0	0	0	532	509	1	0	40	25	
15	0	0	0	0	553	510	2	0	40	25	
0	0	0	0	0	604	513	3	0	40	25	
1	0	0	0	0	636	514	2	0	40	25	
2	0	0	0	0	632	515	3	1018	40	25	
3	0	0	0	0	613	513	3	1018	40	25	
4	0	0	0	0	592	512	3	1018	40	25	
5	0	0	0	0	539	512	1	1018	40	25	
6	0	0	0	0	467	512	3	1018	40	25	
7	0	0	0	0	423	512	0	1018	40	25	
8	0	0	0	0	399	509	1	1019	40	25	
9	0	0	0	0	423	508	2	1018	40	25	
10	0	0	0	0	446	507	0	0	40	25	
11	0	0	0	0	476	505	2	0	40	25	
12	0	0	0	0	492	508	1	0	40	25	
13	0	0	0	0	504	508	0	0	40	25	
14	0	0	0	0	505	511	2	0	40	25	
15	0	0	0	0	500	512	2	0	40	25	
0	0	0	0	0	496	513	2	0	40	25	
1	0	0	0	0	476	514	1	0	40	25	
2	0	0	0	0	464	514	3	0	40	25	
3	0	0	0	0	462	514	1	1018	40	25	
4	0	0	0	0	478	515	4	1019	40	25	
5	0	0	0	0	507	512	3	1018	40	25	
6	0	0	0	0	532	512	1	1018	40	25	
7	0	0	0	0	559	512	2	1018	40	25	
8	0	0	0	0	574	512	2	1019	40	25	
9	0	0	0	0	558	510	0	1018	40	25	
10	0	0	0	0	518	509	2	1018	40	25	
11	0	0	0	0	493	508	1	13	40	25	
12	0	0	0	0	488	508	3	0	40	25	
13	0	0	0	0	498	506	2	0	40	25	
14	0	0	0	0	532	507	0	0	40	25	
15	0	0	0	0	560	508	2	0	40	25	
0	0	0	0	0	583	512	2	0	40	25	
1	0	0	0	0	588	511	3	0	40	25	
2	0	0	0	0	566	512	3	0	40	25	
3	0	0	0	0	546	514	1	1018	40	25	
4	0	0	0	0	505	513	4	1018	40	25	
5	0	0	0	0	484	514	2	1018	40	25	
6	0	0	0	0	483	512	3	1018	40	25	
7	0	0	0	0	480	512	2	1018	40	25	
8	0	0	0	0	469	513	1	1018	40	25	
9	0	0	0	0	464	512	2	1018	40	25	
10	0	0	0	0	470	511	1	1018	40	25	
11	0	0	0	0	488	510	0	711	40	25	
12	0	0	0	0	508	506	2	0	40	25	
13	0	0	0	0	524	506	0	0	40	25	
14	0	0	0	0	532	505	2	0	40	25	
15	0	0	0	0	533	507	1	0	40	25	
0	0	0	0	0	522	510	3	0	40	25	
1	0	0	0	0	490	510	3	0	40	25	
2	0	0	0	0	473	512	1	0	40	25	
3	0	0	0	0	456	513	3	0	40	25	
4	0	0	0	0	462	511	3	1018	40	25	
5	0	0	0	0	489	511	1	1019	40	25	
6	0	0	0	0	492	510	3	1018	40	25	
7	0	0	0	0	520	509	1	1018	40	25	
8	0	0	0	0	539	506	3	1019	40	25	
9	0	0	0	0	554	507	3	1018	40	25	
10	0	0	0	0	565	509	0	1019	40	25	
11	0	0	0	0	599	509	2	1018	40	25	
12	0	0	0	0	598	510	2	1018	40	25	
13	0	0	0	0	584	506	1	0	40	25	
14	0	0	0	0	592	505	3	0	40	25	
15	0	0	0	0	589	507	0	0	40	25	
0	0	0	0	0	552	508	3	0	40	25	
1	0	0	0	0	510	509	1	0	40	25	
2	0	0	0	0	467	511	0	0	40	25	
3	0	0	0	0	435	512	3	0	40	25	
4	0	0	0	0	428	512	3	739	40	25	
5	0	0	0	0	438	511	2	1018	40	25	
6	0	0	0	0	450	513	3	1018	40	25	
7	0	0	0	0	467	512	0	1018	40	25	
8	0	0	0	0	494	512	4	1019	40	25	
9	0	0	0	0	493	512	1	1019	40	25	
10	0	0	0	0	510	512	2	1018	40	25	
11	0	0	0	0	527	513	2	1018	40	25	
12	0	0	0	0	521	512	3	1019	40	25	
13	0	0	0	0	527	511	3	1018	40	25	
14	0	0	0	0	561	507	0	0	40	25	
15	0	0	0	0	585	509	2	0	40	25	
0	0	0	0	0	558	510	2	0	40	25	
1	0	0	0	0	515	510	0	0	40	25	
2	0	0	0	0	487	513	3	0	40	25	
3	0	0	0	0	464	513	1	0	40	25	
4	0	0	0	0	438	512	4	0	40	25	
5	0	0	0	0	438	511	4	1018	40	25	
6	0	0	0	0	471	512	1	1018	40	25	
7	0	0	0	0	523	513	3	1018	40	25	
8	0	0	0	0	557	511	3	1018	40	25	
9	0	0	0	0	568	511	1	1018	40	25	
10	0	0	0	0	565	513	3	1018	40	25	
11	0	0	0	0	558	513	0	1018	40	25	
12	0	0	0	0	521	513	3	1019	40	25	
13	0	0	0	0	483	510	1	1019	40	25	
14	0	0	0	0	469	508	2	716	40	25	
15	0	0	0	0	472	506	2	0	40	25	
0	0	0	0	0	480	506	3	0	40	25	
1	0	0	0	0	481	505	2	0	40	25	
2	0	0	0	0	494	507	1	0	40	25	
3	0	0	0	0	490	508	3	0	40	25	
4	0	0	0	0	512	509	3	0	40	25	
5	0	0	0	0	517	510	1	0	40	25	
6	0	0	0	0	506	510	4	1018	40	25	
7	0	0	0	0	501	511	1	1018	40	25	
8	0	0	0	0	493	511	4	1019	40	25	
9	0	0	0	0	487	510	3	1018	40	25	
10	0	0	0	0	505	511	1	1018	40	25	
11	0	0	0	0	551	512	3	1018	40	25	
12	0	0	0	0	610	511	2	1019	40	25	
13	0	0	0	0	655	510	2	1018	40	25	
14	0	0	0	0	648	508	1	1018	40	25	
15	0	0	0	0	621	506	2	0	40	25	
0	0	0	0	0	576	506	2	0	40	25	
1	0	0	0	0	509	506	0	0	40	25	
2	0	0	0	0	449	508	2	0	40	25	
3	0	0	0	0	432	508	0	0	40	25	
4	0	0	0	0	435	509	3	0	40	25	
5	0	0	0	0	454	509	3	0	40	25	
6	0	0	0	0	470	510	1	0	40	25	
7	0	0	0	0	489	511	3	1018	40	25	
8	0	0	0	0	479	510	3	1019	40	25	
9	0	0	0	0	478	510	3	1018	40	25	
10	0	0	0	0	472	512	2	1018	40	25	
11	0	0	0	0	483	510	1	1018	40	25	
12	0	0	0	0	498	510	3	1019	40	25	
13	0	0	0	0	513	510	0	1018	40	25	
14	0	0	0	0	529	510	2	1018	40	25	
15	0	0	0	0	538	510	0	0	40	25	
0	0	0	0	0	544	510	3	0	40	25	
1	0	0	0	0	527	508	2	0	40	25	
2	0	0	0	0	507	510	0	0	40	25	
3	0	0	0	0	512	511	2	0	40	25	
4	0	0	0	0	527	511	2	0	40	25	
5	0	0	0	0	527	512	1	0	40	25	
6	0	0	0	0	512	512	3	0	40	25	
7	0	0	0	0	506	514	0	0	40	25	
8	0	0	0	0	492	513	3	1019	40	25	
9	0	0	0	0	516	511	2	1018	40	25	
10	0	0	0	0	529	510	3	1019	40	25	
11	0	0	0	0	547	510	2	1018	40	25	
12	0	0	0	0	572	512	4	1019	40	25	
13	0	0	0	0	578	509	2	1018	40	25	
14	0	0	0	0	577	508	1	1018	40	25	
15	0	0	0	0	561	508	2	1018	40	25	
0	0	0	0	0	532	508	1	0	39	25	
1	0	0	0	0	489	508	0	0	40	25	
2	0	0	0	0	466	506	2	0	40	25	
3	0	0	0	0	474	508	0	0	40	25	
4	0	0	0	0	503	509	3	0	40	25	
5	0	0	0	0	524	510	2	0	40	25	
6	0	0	0	0	533	512	3	0	40	25	
7	0	0	0	0	520	513	3	0	40	25	
8	0	0	0	0	489	514	3	1019	40	25	
9	0	0	0	0	469	514	3	1018	40	25	
10	0	0	0	0	428	512	1	1018	40	25	
11	0	0	0	0	401	513	3	1018	40	25	
12	0	0	0	0	411	513	3	1019	40	25	
13	0	0	0	0	440	511	1	1018	40	25	
14	0	0	0	0	470	510	2	1018	40	25	
15	0	0	0	0	505	510	2	1018	40	25	
0	0	0	0	0	529	507	3	1018	40	25	
1	0	0	0	0	558	504	2	0	40	25	
2	0	0	0	0	568	503	1	0	40	25	
3	0	0	0	0	570	505	0	0	40	25	
4	0	0	0	0	594	504	1	0	40	25	
5	0	0	0	0	617	508	2	0	40	25	
6	0	0	0	0	604	509	1	0	40	25	
7	0	0	0	0	591	512	2	0	40	25	
8	0	0	0	0	559	514	3	0	40	25	
9	0	0	0	0	526	512	2	1018	40	25	
10	0	0	0	0	495	514	4	1018	40	25	
11	0	0	0	0	463	512	1	1018	40	25	
12	0	0	0	0	442	512	3	1019	40	25	
13	0	0	0	0	449	512	2	1019	40	25	
14	0	0	0	0	472	513	1	1018	40	25	
15	0	0	0	0	488	512	2	1018	40	25	
0	0	0	0	0	489	508	2	1019	40	25	
1	0	0	0	0	483	506	0	0	40	25	
2	0	0	0	0	513	505	1	0	40	25	
3	0	0	0	0	531	504	0	0	40	25	
4	0	0	0	0	527	504	1	0	40	25	
5	0	0	0	0	504	506	2	0	40	25	
6	0	0	0	0	481	508	1	0	40	25	
7	0	0	0	0	465	510	2	0	40	25	
8	0	0	0	0	458	511	3	0	40	25	
9	0	0	0	0	476	513	3	431	40	25	
10	0	0	0	0	500	513	2	1018	40	25	
11	0	0	0	0	534	513	1	1018	40	25	
12	0	0	0	0	558	512	3	1019	40	25	
13	0	0	0	0	547	511	1	1018	40	25	
14	0	0	0	0	560	511	3	1018	40	25	
15	0	0	0	0	531	510	1	1018	40	25	
0	0	0	0	0	482	508	1	1019	40	25	
1	0	0	0	0	431	506	2	1018	40	25	
2	0	0	0	0	427	504	0	0	40	25	
3	0	0	0	0	427	502	2	0	40	25	
4	0	0	0	0	470	502	2	0	40	25	
5	0	0	0	0	486	504	0	0	40	25	
6	0	0	0	0	495	507	2	0	40	25	
7	0	0	0	0	549	507	1	0	40	25	
8	0	0	0	0	577	509	1	0	40	25	
9	0	0	0	0	584	510	3	0	40	25	
10	0	0	0	0	627	512	2	1018	40	25	
11	0	0	0	0	654	511	3	1018	40	25	
